version:,4
time engine rpm secondary rpm dc motor pos dc motor target pos target rpm hlfb PI integral term PID dt Error engine raw rpm derivative of error signed motor velocity motor target velocity tire slipping (bool) secondary total rotations raw battery analog battery SOC primary slope secondary slope brake sensor (on/off) current state latitude longitude altitude gps speed (mph)
0,2558,2314,3880,3780,3250,48,4785,51,-312,2451,-172,-9000,0,0,294209,2992,75,-0.84,-2.03,1,7,43.070755,-77.171555,167.199997,18.82
53,2519,2185,3759,3580,3250,48,4785,51,-312,2406,-172,-14400,0,0,294211,2994,75,-0.78,-2.39,1,7,43.070755,-77.171555,167.199997,18.82
106,2471,2064,3548,3332,3250,48,4785,51,-312,2364,-172,-25200,0,0,294213,2998,75,-0.95,-2.32,1,7,43.070755,-77.171555,167.199997,18.82
158,2413,1961,3331,3197,3250,47,4785,51,-312,2336,-172,-21600,0,0,294214,2996,75,-1.13,-2.05,1,7,43.070755,-77.171555,168.600006,18.82
212,2375,1872,3166,3091,3250,48,4785,51,-312,2321,-172,-16200,0,0,294216,2998,75,-0.74,-1.57,1,7,43.070755,-77.171555,168.600006,18.82
268,2349,1782,3073,2962,3250,48,4785,51,-312,2320,-172,-10800,0,0,294217,2995,75,-0.5,-1.74,1,7,43.070755,-77.171555,168.600006,18.82
320,2328,1695,2915,2810,3250,49,4785,51,-312,2300,-172,-19800,0,0,294218,3001,75,-0.4,-1.59,1,7,43.070755,-77.171555,168.600006,18.82
375,2311,1611,2765,2648,3250,48,4785,51,-312,2280,-172,-18000,0,0,294220,3000,75,-0.32,-1.62,1,7,43.070755,-77.171555,168.600006,18.82
428,2295,1525,2616,2473,3250,48,4785,51,-312,2255,-172,-18000,0,0,294221,2993,75,-0.3,-1.56,1,7,43.070755,-77.171555,168.600006,18.82
480,2276,1440,2430,2296,3250,49,4785,51,-312,2228,-172,-21600,0,0,294222,2999,75,-0.35,-1.63,1,7,43.070755,-77.171555,168.600006,18.82
532,2255,1367,2280,2127,3250,48,4785,51,-312,2214,-172,-18000,0,0,294223,2993,75,-0.39,-1.49,1,7,43.070755,-77.171555,168.600006,18.82
586,2233,1294,2094,1939,3250,48,4785,51,-312,2188,-172,-21600,0,0,294224,2997,75,-0.4,-1.24,1,7,43.070755,-77.171555,168.600006,18.82
638,2209,1224,1927,1780,3250,48,4785,51,-312,2163,-172,-19800,0,0,294225,2996,75,-0.43,-1.46,1,7,43.070755,-77.171555,168.600006,18.82
691,2219,1171,1744,1664,3250,48,4785,51,-312,2305,-172,-18000,0,0,294226,2992,75,0.19,-0.97,1,7,43.070755,-77.171555,168.600006,18.82
746,2283,1139,1621,1588,3250,48,4785,51,-312,2547,-172,-10800,0,0,294227,2997,75,1.36,-0.6,1,7,43.070755,-77.171555,168.600006,18.82
798,2408,1210,1594,1750,3250,49,4785,51,-312,2837,-172,660,0,0,294229,3002,75,1.97,1.25,1,7,43.070755,-77.171555,168.600006,18.82
850,2605,1423,1615,2259,3250,49,4785,51,-312,3176,-172,3080,0,1,294230,2996,75,3.48,4.18,1,7,43.070755,-77.171555,168.600006,18.82
904,2857,1511,1657,2445,3250,52,4785,51,-312,3420,-172,5280,0,1,294232,3005,75,4.79,1.64,1,7,43.070755,-77.171555,168.600006,18.82
956,3128,1632,1716,5050,3250,51,4721,53,-122,3662,-156,4743,4743,1,294233,3001,75,5.51,2.29,1,7,43.070755,-77.171555,168.600006,18.82
1009,3379,1720,1764,5050,3250,52,4788,52,129,3802,511,5843,7698,1,294235,2994,75,5.3,1.67,1,7,43.070816,-77.1716,168.600006,15.87
1062,3579,1724,1839,2862,3250,52,4788,53,329,3836,511,8043,0,1,294236,2992,75,3.2,0.08,1,7,43.070816,-77.1716,168.600006,15.87
1114,3709,1613,1929,5050,3250,52,5000,53,459,3825,794,10243,14680,0,294238,2994,75,2.76,-2.05,1,7,43.070816,-77.1716,168.600006,15.87
1167,3785,1636,2053,5050,3250,52,5000,52,535,3800,223,12663,15766,0,294239,2993,75,1.2,0.46,1,7,43.070816,-77.1716,168.600006,15.87
1220,3809,1630,2203,5050,3250,52,5000,54,559,3785,116,15083,16108,0,294241,2995,75,0.5,-0.11,1,7,43.070816,-77.1716,168.600006,15.87
1273,3803,1653,2359,5050,3250,53,5000,52,553,3773,30,16023,16023,0,294242,2978,75,-0.13,0.43,1,7,43.070816,-77.1716,168.600006,15.87
1325,3776,1655,2529,5050,3250,57,5000,52,526,3700,-19,15637,15637,0,294243,2973,75,-0.56,0.04,1,7,43.070816,-77.1716,168.600006,15.87
1378,3722,1644,2678,5050,3250,59,5000,54,472,3555,-62,14866,14866,0,294245,2981,75,-0.8,-0.2,1,7,43.070816,-77.1716,168.600006,15.87
1430,3658,1652,2834,5050,3250,59,5000,52,408,3481,-109,13952,13952,0,294246,2976,75,-1.24,0.16,1,7,43.070816,-77.1716,168.600006,15.87
1483,3606,1661,2967,5050,3250,59,5000,52,356,3525,-117,13210,13210,0,294248,2961,75,-1.02,0.17,1,7,43.070816,-77.1716,168.600006,15.87
1536,3554,1677,3105,5050,3250,61,5000,54,304,3512,-96,12332,12332,0,294249,2967,75,-1.01,0.29,1,7,43.070816,-77.1716,168.600006,15.87
1589,3508,1707,3214,5050,3250,62,5000,52,258,3468,-96,9280,9280,0,294251,2967,75,-0.89,0.59,1,7,43.070816,-77.1716,168.600006,15.87
1641,3474,1743,3312,5050,3250,62,5000,52,224,3386,-82,8914,8914,0,294253,2970,75,-0.64,0.66,1,7,43.070816,-77.1716,168.600006,15.87
1694,3437,1758,3398,5050,3250,62,5000,54,187,3297,-64,8515,8515,0,294254,2978,75,-0.68,0.29,1,7,43.070816,-77.1716,168.600006,15.87
1746,3378,1776,3486,5050,3250,62,5000,52,128,3231,-82,7879,7879,0,294256,2972,75,-1.59,0.33,1,7,43.070816,-77.1716,168.600006,15.87
1800,3313,1782,3567,5050,3250,62,5000,53,63,3183,-113,7178,7178,0,294257,2973,75,-1.15,0.11,1,7,43.070816,-77.1716,168.600006,15.87
1853,3242,1797,3634,5050,3250,62,4996,54,-8,3113,-124,6408,6408,0,294259,2962,75,-1.23,0.28,1,7,43.070816,-77.1716,168.600006,15.87
1906,3181,1811,3700,5050,3250,62,4961,52,-69,3083,-130,5706,5706,0,294261,2978,75,-1.04,0.27,1,7,43.070816,-77.1716,168.600006,15.87
2048,3098,1811,3851,5050,3250,63,4746,142,-152,2883,-47,4531,4531,0,294265,2986,75,-0.57,0,1,7,43.070816,-77.1716,168.600006,15.87
2101,2996,1807,3894,5050,3250,62,4612,53,-254,2722,-164,3258,3258,0,294266,2977,75,-2.31,-0.07,1,7,43.070816,-77.1716,168.600006,15.87
2156,2920,1839,3924,5050,3250,61,4431,55,-330,2800,-172,2204,2204,0,294268,2989,75,-1.18,0.6,1,7,43.070816,-77.1716,168.600006,15.87
2209,2882,1892,3932,3116,3250,58,4431,55,-330,2925,-172,-3600,0,0,294270,2991,75,-0.93,0.99,1,7,43.070816,-77.1716,168.600006,15.87
2262,2851,1915,3778,3144,3250,56,4431,55,-330,2925,-172,-23400,0,0,294272,2992,75,-0.5,0.43,1,7,43.070816,-77.1716,168.600006,15.87
2316,2819,1927,3431,3158,3250,46,4431,55,-330,2724,-172,-32400,0,0,294273,3000,75,-0.73,0.22,1,7,43.070816,-77.1716,168.600006,15.87
2368,2798,1916,3212,3145,3250,48,4431,55,-330,2617,-172,-14400,0,0,294275,2993,75,-0.46,-0.21,1,7,43.070816,-77.1716,168.600006,15.87
2421,2773,1868,3122,3086,3250,49,4431,55,-330,2674,-172,-10800,0,0,294276,2998,75,-0.37,-0.91,1,7,43.070816,-77.1716,168.600006,15.87
2475,2752,1802,3059,2994,3250,48,4431,55,-330,2822,-172,-10800,0,0,294278,2999,75,-0.49,-1.2,1,7,43.070816,-77.1716,168.600006,15.87
2528,2763,1771,2967,2943,3250,49,4431,55,-330,2981,-172,-9000,0,0,294280,2994,75,0.18,-0.58,1,7,43.070816,-77.1716,168.600006,15.87
2580,2845,1774,2947,2948,3250,48,4431,55,-330,3135,-172,0,0,0,294281,3003,75,1.43,0.06,1,7,43.070816,-77.1716,168.600006,15.87
2634,2973,1793,2949,5050,3250,49,4285,53,-277,3256,-190,880,2416,0,294283,2993,75,2.32,0.36,1,7,43.070816,-77.1716,168.600006,15.87
2687,3116,1833,2972,5050,3250,51,4214,53,-134,3387,249,3300,3957,0,294285,2993,75,2.69,0.79,1,7,43.070816,-77.1716,168.600006,15.87
2740,3253,1866,3012,5050,3250,56,4215,53,3,3508,267,4837,5512,0,294286,2986,75,2.67,0.61,1,7,43.070816,-77.1716,168.600006,15.87
2794,3372,1899,3073,5050,3250,56,4280,54,122,3576,244,6392,6912,0,294288,2987,75,2.36,0.62,1,7,43.070816,-77.1716,168.600006,15.87
2846,3464,1934,3150,5050,3250,57,4393,53,214,3597,213,8012,8031,0,294290,2992,75,1.84,0.67,1,7,43.070816,-77.1716,168.600006,15.87
2899,3536,1972,3231,5050,3250,58,4541,52,286,3614,167,8911,8985,0,294292,2990,75,1.45,0.68,1,7,43.070816,-77.1716,168.600006,15.87
2953,3582,2007,3329,5050,3250,58,4720,54,332,3619,120,9865,12141,0,294294,2993,75,0.69,0.65,1,7,43.070816,-77.1716,168.600006,15.87
3006,3609,2049,3450,5050,3250,58,4910,53,359,3640,77,12285,12813,0,294295,2984,75,0.55,0.8,1,7,43.070904,-77.171707,168.600006,16.3
3059,3620,2092,3575,5050,3250,58,5000,53,370,3630,43,13108,13108,0,294297,2987,75,0.22,0.84,1,7,43.070904,-77.171707,168.600006,16.3
3114,3624,2143,3716,5050,3250,59,5000,55,374,3617,18,13162,13162,0,294300,2986,75,0.08,0.91,1,7,43.070904,-77.171707,168.600006,16.3
3166,3623,2196,3858,5050,3250,59,5000,53,373,3610,3,13148,13148,0,294302,2956,75,-0.02,1.01,1,7,43.070904,-77.171707,169.100006,16.3
3219,3594,2236,3985,5050,3250,62,5000,52,344,3474,-15,12758,12758,0,294304,2983,75,-0.42,0.76,1,7,43.070904,-77.171707,169.100006,16.3
3273,3515,2263,4110,5050,3250,60,5000,55,265,3247,-76,9355,9355,0,294306,2990,75,-2.14,0.51,1,7,43.070904,-77.171707,169.100006,16.3
3326,3402,2282,4205,5050,3250,58,5000,52,152,3065,-167,8138,8138,0,294308,2987,75,-1.92,0.34,1,7,43.070904,-77.171707,169.100006,16.3
3380,3256,2281,4284,5050,3250,57,5000,55,6,2887,-220,6564,6564,0,294310,2991,75,-2.34,-0.02,1,7,43.070904,-77.171707,169.100006,16.3
3438,3076,2261,4347,5050,3250,56,4901,57,-174,2708,-270,4496,4496,0,294312,2990,75,-4.06,-0.34,1,7,43.070904,-77.171707,169.100006,16.3
3490,2899,2233,4372,3666,3250,57,4901,57,-174,2592,-270,-3600,0,0,294314,2999,75,-3.82,-0.54,1,7,43.070904,-77.171707,169.100006,16.3
3542,2741,2197,4240,3602,3250,55,4901,57,-174,2453,-270,-21600,0,0,294315,2990,75,-2.15,-0.72,1,7,43.070904,-77.171707,169.100006,16.3
3595,2597,2156,3896,3525,3250,48,4901,57,-174,2346,-270,-37800,0,0,294317,2983,75,-2.82,-0.76,1,7,43.070904,-77.171707,169.100006,16.3
3648,2488,2137,3616,3487,3250,48,4901,57,-174,2341,-270,-21600,0,0,294319,2999,75,-2.13,-0.37,1,7,43.070904,-77.171707,169.100006,16.3
3701,2425,2121,3476,3454,3250,49,4901,57,-174,2394,-270,-7200,0,0,294321,3003,75,-1.26,-0.3,1,7,43.070904,-77.171707,169.100006,16.3
3753,2431,2105,3437,3420,3250,48,4901,57,-174,2623,-270,-7200,0,0,294323,2999,75,0.13,-0.32,1,7,43.070904,-77.171707,169.100006,16.3
3807,2504,2103,3418,3416,3250,48,4901,57,-174,2817,-270,0,0,0,294325,2993,75,1.14,-0.04,1,7,43.070904,-77.171707,169.100006,16.3
3859,2614,2093,3403,3395,3250,48,4901,57,-174,2896,-270,-5400,0,0,294326,3001,75,2.66,-0.18,1,7,43.070904,-77.171707,169.100006,16.3
3911,2717,2051,3370,3303,3250,49,4901,57,-174,2859,-270,-9000,0,0,294328,2994,75,1.64,-0.84,1,7,43.070904,-77.171707,169.100006,16.3
3965,2818,2037,3284,3280,3250,48,4901,57,-174,2898,-270,-3600,0,0,294330,2997,75,2.44,-0.25,1,7,43.070904,-77.171707,169.100006,16.3
4017,2881,2028,3272,3271,3250,48,4901,57,-174,2937,-270,-1800,0,0,294332,2992,75,1.03,-0.17,1,7,43.070965,-77.171745,169.100006,17.43
4070,2909,2010,3275,5050,3250,49,4724,52,-341,2955,-623,1100,2467,0,294333,2999,75,0.69,-0.34,1,7,43.070965,-77.171745,169.100006,17.43
4124,2922,2001,3295,5050,3250,49,4547,54,-328,2961,44,2377,2377,0,294335,3001,75,0.21,-0.17,1,7,43.070965,-77.171745,169.100006,17.43
4176,2939,1991,3320,5050,3250,53,4386,52,-311,2946,26,2350,2350,0,294337,2992,75,0.28,-0.18,1,7,43.070965,-77.171745,168.899994,17.43
4228,2942,1960,3343,5050,3250,54,4223,53,-308,2913,26,2170,2170,0,294338,2989,75,0.07,-0.6,1,7,43.070965,-77.171745,168.899994,17.43
4281,2946,1932,3365,5050,3250,55,4065,52,-304,2956,5,2008,2008,0,294340,2990,75,0.07,-0.54,1,7,43.070965,-77.171745,168.899994,17.43
4333,2960,1924,3385,5050,3250,55,3912,53,-290,3024,13,1960,1960,0,294342,3000,75,0.35,-0.15,1,7,43.070965,-77.171745,168.899994,17.43
4386,2994,1935,3407,5050,3250,55,3779,52,-256,3131,36,2154,2154,0,294344,2992,75,0.59,0.21,1,7,43.070965,-77.171745,168.899994,17.43
4440,3049,1969,3432,5050,3250,54,3671,54,-201,3225,72,2606,2606,0,294346,2985,75,0.99,0.63,1,7,43.070965,-77.171745,168.899994,17.43
4492,3101,1980,3459,5050,3250,55,3594,52,-149,3169,103,3067,3067,0,294347,2983,75,0.92,0.22,1,7,43.070965,-77.171745,168.899994,17.43
4545,3130,1986,3489,5050,3250,56,3531,53,-120,3103,86,3297,3297,0,294349,2993,75,0.5,0.11,1,7,43.070965,-77.171745,168.899994,17.43
4598,3145,1983,3525,5050,3250,57,3475,54,-105,3097,48,3386,3386,0,294351,2986,75,0.39,-0.06,1,7,43.070965,-77.171745,168.899994,17.43
4650,3142,1961,3561,5050,3250,58,3419,52,-108,3120,19,3281,3281,0,294352,2975,75,-0.05,-0.44,1,7,43.070965,-77.171745,168.899994,17.43
4703,3127,1945,3592,5050,3250,58,3356,52,-123,3147,-11,3037,3037,0,294354,2989,75,-0.26,-0.3,1,7,43.070965,-77.171745,168.899994,17.43
4756,3129,1965,3625,5050,3250,57,3292,53,-121,3178,-18,2975,2975,0,294356,2995,75,0.04,0.36,1,7,43.070965,-77.171745,168.899994,17.43
4808,3144,1986,3654,5050,3250,57,3236,53,-106,3178,9,3064,3064,0,294358,2990,75,0.4,0.4,1,7,43.070965,-77.171745,168.899994,17.43
4861,3163,2026,3688,5050,3250,58,3191,52,-87,3193,30,3211,3211,0,294360,2988,75,0.34,0.76,1,7,43.070965,-77.171745,168.899994,17.43
4913,3197,2085,3720,5050,3250,57,3164,52,-53,3290,44,3542,3542,0,294362,2985,75,0.62,1.17,1,7,43.070965,-77.171745,168.899994,17.43
4966,3238,2147,3760,5050,3250,58,3158,54,-12,3354,64,3976,3976,0,294364,2994,75,0.76,1.12,1,7,43.070965,-77.171745,168.899994,17.43
5019,3281,2205,3800,5050,3250,57,3174,52,31,3392,80,4460,4460,0,294366,2994,75,0.81,1.12,1,7,43.071026,-77.17173,168.899994,15.39
5071,3321,2263,3850,5050,3250,57,3210,52,71,3379,80,4938,4938,0,294368,2985,75,0.75,1.12,1,7,43.071026,-77.17173,168.899994,15.39
5125,3338,2267,3905,5050,3250,57,3257,54,88,3275,62,5182,5182,0,294370,2977,75,0.31,0.08,1,7,43.071026,-77.17173,168.899994,15.39
5177,3307,2240,3954,5050,3250,58,3287,53,57,3139,9,4887,4887,0,294371,2986,75,-0.54,-0.5,1,7,43.071026,-77.17173,168.5,15.39
5230,3259,2222,4004,5050,3250,59,3291,52,9,3112,-67,4374,4374,0,294373,2989,75,-1.25,-0.33,1,7,43.071026,-77.17173,168.5,15.39
5283,3208,2197,4045,5050,3250,58,3269,54,-42,3136,-88,3797,3797,0,294375,2989,75,-0.89,-0.49,1,7,43.071026,-77.17173,168.5,15.39
5336,3155,2192,4082,5050,3250,57,3220,52,-95,3116,-100,3163,3163,0,294377,2987,75,-0.92,-0.1,1,7,43.071026,-77.17173,168.5,15.39
5388,3134,2225,4112,5050,3250,57,3159,53,-116,3167,-84,2856,2856,0,294379,2985,75,-0.37,0.6,1,7,43.071026,-77.17173,168.5,15.39
5442,3123,2251,4142,5050,3250,57,3092,53,-127,3084,-35,2651,2651,0,294381,2989,75,-0.28,0.48,1,7,43.071026,-77.17173,168.5,15.39
5494,3120,2287,4167,5050,3250,57,3024,53,-130,3098,-15,2530,2530,0,294383,2998,75,-0.05,0.72,1,7,43.071026,-77.17173,168.5,15.39
5547,3115,2313,4194,5050,3250,57,2954,52,-135,3110,-7,2386,2386,0,294385,2992,75,-0.09,0.47,1,7,43.071026,-77.17173,168.5,15.39
5600,3096,2299,4218,5050,3250,57,2871,54,-154,3022,-14,2073,2073,0,294387,2986,75,-0.32,-0.28,1,7,43.071026,-77.17173,168.5,15.39
5653,3056,2285,4236,5050,3250,57,2771,52,-194,2970,-46,1512,1512,0,294389,2994,75,-0.99,-0.26,1,7,43.071026,-77.17173,168.5,15.39
5705,3027,2293,4250,5050,3250,58,2656,52,-223,2936,-73,1049,1049,0,294391,2990,75,-0.47,0.15,1,7,43.071026,-77.17173,168.5,15.39
5759,3003,2288,4258,5050,3250,56,2523,54,-247,2981,-51,618,618,0,294394,3001,75,-0.6,-0.09,1,7,43.071026,-77.17173,168.5,15.39
5811,2983,2310,4263,5050,3250,55,2385,52,-267,3007,-44,223,223,0,294396,3004,75,-0.33,0.42,1,7,43.071026,-77.17173,168.5,15.39
5863,2980,2345,4264,5050,3250,55,2242,53,-270,3010,-28,5,5,0,294398,3000,75,-0.05,0.66,1,7,43.071026,-77.17173,168.5,15.39
5917,2982,2353,4264,700,3250,55,2100,53,-268,2976,-3,-158,-158,0,294400,2991,75,0.05,0.15,1,7,43.071026,-77.17173,168.5,15.39
5970,2956,2324,4261,700,3250,54,1948,52,-294,2810,-9,-636,-636,0,294402,3001,75,-0.41,-0.55,1,7,43.071026,-77.17173,168.5,15.39
6021,2911,2290,4250,700,3250,53,1776,51,-339,2754,-60,-1345,-1345,0,294403,2992,75,-1.03,-0.67,1,7,43.071056,-77.171661,168.5,16.53
6074,2855,2230,4220,3661,3250,47,1776,51,-339,2725,-60,-8545,0,0,294405,2991,75,-0.85,-1.13,1,7,43.071056,-77.171661,168.5,16.53
6127,2800,2197,4012,3602,3250,47,1776,51,-339,2736,-60,-28345,0,0,294407,3003,75,-1.25,-0.61,1,7,43.071056,-77.171661,168.199997,16.53
6179,2774,2207,3737,3620,3250,47,1776,51,-339,2848,-60,-21145,0,0,294410,3004,75,-0.62,0.2,1,7,43.071056,-77.171661,168.199997,16.53
6232,2816,2249,3626,3695,3250,48,1776,51,-339,3019,-60,-1345,0,0,294412,3004,75,0.7,0.77,1,7,43.071056,-77.171661,168.199997,16.53
6286,2897,2258,3637,3710,3250,49,1776,51,-339,3157,-60,2200,0,0,294414,2996,75,1.42,0.17,1,7,43.071056,-77.171661,168.199997,16.53
6338,3003,2272,3655,700,3250,49,1648,52,-247,3257,-42,-519,-519,0,294415,2993,75,1.92,0.27,1,7,43.071056,-77.171661,168.199997,16.53
6390,3109,2261,3653,5050,3250,56,1574,53,-141,3266,201,527,527,0,294417,3003,75,1.92,-0.21,1,7,43.071056,-77.171661,168.199997,16.53
6444,3182,2209,3660,5050,3250,55,1538,53,-68,3213,183,1267,1267,0,294419,3005,75,1.3,-0.97,1,7,43.071056,-77.171661,168.199997,16.53
6497,3214,2160,3675,5050,3250,52,1519,53,-36,3179,118,1587,1587,0,294421,2987,75,0.85,-0.91,1,7,43.071056,-77.171661,168.199997,16.53
6549,3217,2128,3691,5050,3250,57,1502,52,-33,3170,48,1597,1597,0,294423,2992,75,0.05,-0.59,1,7,43.071056,-77.171661,168.199997,16.53
6603,3209,2139,3708,5050,3250,58,1480,54,-41,3220,0,1483,1483,0,294425,3002,75,-0.14,0.21,1,7,43.071056,-77.171661,168.199997,16.53
6654,3232,2184,3723,5050,3250,56,1471,51,-18,3378,0,1719,1719,0,294427,3001,75,0.43,0.9,1,7,43.071056,-77.171661,168.199997,16.53
6706,3271,2230,3743,5050,3250,55,1482,53,21,3411,50,2152,2152,0,294429,2992,75,0.74,0.89,1,7,43.071056,-77.171661,168.199997,16.53
6760,3317,2277,3769,5050,3250,56,1517,53,67,3408,77,2694,2694,0,294431,2999,75,0.87,0.86,1,7,43.071056,-77.171661,168.199997,16.53
6812,3354,2310,3797,5050,3250,56,1572,53,104,3353,81,3163,3163,0,294433,2991,75,0.69,0.62,1,7,43.071056,-77.171661,168.199997,16.53
6865,3371,2301,3832,5050,3250,57,1634,52,121,3309,61,3428,3428,0,294435,2989,75,0.31,-0.18,1,7,43.071056,-77.171661,168.199997,16.53
6919,3325,2240,3864,5050,3250,57,1674,54,75,3147,3,2984,2984,0,294437,2987,75,-0.8,-1.13,1,7,43.071056,-77.171661,168.199997,16.53
6974,3271,2220,3893,5050,3250,58,1685,56,21,3138,-87,2416,2416,0,294439,2999,75,-1.41,-0.35,1,7,43.071056,-77.171661,168.199997,16.53
7027,3232,2216,3917,5050,3250,58,1676,52,-18,3214,-94,1985,1985,0,294441,2993,75,-0.7,-0.08,1,7,43.071037,-77.171585,168.199997,15.72
7080,3219,2246,3938,5050,3250,57,1660,54,-31,3287,-61,1824,1824,0,294443,2999,75,-0.24,0.57,1,7,43.071037,-77.171585,168.199997,15.72
7133,3226,2278,3956,5050,3250,57,1648,52,-24,3346,-15,1884,1884,0,294445,2990,75,0.13,0.59,1,7,43.071037,-77.171585,167.800003,15.72
7185,3246,2311,3977,5050,3250,57,1646,52,-4,3247,19,2096,2096,0,294447,2987,75,0.36,0.66,1,7,43.071037,-77.171585,167.800003,15.72
7239,3254,2320,3998,5050,3250,57,1648,54,4,3176,31,2185,2185,0,294449,2988,75,0.14,0.16,1,7,43.071037,-77.171585,167.800003,15.72
7291,3241,2308,4021,5050,3250,57,1644,52,-9,3153,5,2041,2041,0,294451,3002,75,-0.23,-0.24,1,7,43.071037,-77.171585,167.800003,15.72
7343,3221,2297,4040,5050,3250,56,1629,53,-29,3186,-28,1805,1805,0,294453,2995,75,-0.53,-0.2,1,7,43.071037,-77.171585,167.800003,15.72
7396,3199,2299,4058,5050,3250,56,1603,52,-51,3233,-40,1534,1534,0,294455,2988,75,-0.4,0.04,1,7,43.071037,-77.171585,167.800003,15.72
7449,3195,2319,4072,5050,3250,56,1574,54,-55,3227,-31,1454,1454,0,294457,2992,75,-0.07,0.37,1,7,43.071037,-77.171585,167.800003,15.72
7502,3200,2340,4088,5050,3250,57,1548,52,-50,3205,-1,1474,1474,0,294459,2987,75,0.09,0.39,1,7,43.071037,-77.171585,167.800003,15.72
7554,3213,2371,4103,5050,3250,56,1529,52,-37,3216,13,1589,1589,0,294462,2992,75,0.23,0.62,1,7,43.071037,-77.171585,167.800003,15.72
7608,3232,2406,4121,5050,3250,57,1520,54,-18,3282,25,1783,1783,0,294464,2992,75,0.35,0.62,1,7,43.071037,-77.171585,167.800003,15.72
7660,3248,2432,4141,5050,3250,56,1519,53,-2,3310,35,1953,1953,0,294466,3002,75,0.29,0.51,1,7,43.071037,-77.171585,167.800003,15.72
7713,3259,2457,4160,5050,3250,57,1523,52,9,3282,26,2075,2075,0,294468,2991,75,0.3,0.46,1,7,43.071037,-77.171585,167.800003,15.72
7766,3268,2472,4183,5050,3250,56,1532,54,18,3253,20,2184,2184,0,294470,2991,75,0.16,0.29,1,7,43.071037,-77.171585,167.800003,15.72
7819,3269,2495,4205,5050,3250,56,1541,52,19,3222,13,2207,2207,0,294473,2988,75,0.02,0.43,1,7,43.071037,-77.171585,167.800003,15.72
