version:,4
time engine rpm secondary rpm dc motor pos dc motor target pos target rpm hlfb PI integral term PID dt Error engine raw rpm derivative of error signed motor velocity motor target velocity tire slipping (bool) secondary total rotations raw battery analog battery SOC primary slope secondary slope brake sensor (on/off) current state latitude longitude altitude gps speed (mph)
0,2867,1531,2533,2485,3250,48,4538,62,-252,2904,-185,-10800,0,0,361205,2965,72,0.18,-0.59,1,7,43.070751,-77.171585,167.600006,11.99
61,2875,1477,2438,2376,3250,47,4538,62,-252,2882,-185,-12600,0,0,361207,2964,72,0.13,-0.88,1,7,43.070751,-77.171585,167.600006,11.99
122,2883,1442,2333,2301,3250,47,4538,62,-252,2865,-185,-10800,0,0,361208,2965,72,0.13,-0.58,1,7,43.070751,-77.171585,169.800003,11.99
181,2881,1397,2268,2199,3250,48,4538,62,-252,2842,-185,-10800,0,0,361209,2962,72,-0.03,-0.8,1,7,43.070751,-77.171585,169.800003,11.99
240,2839,1352,2164,2090,3250,48,4538,62,-252,2702,-185,-12600,0,0,361211,2963,72,-0.95,-0.76,1,7,43.070751,-77.171585,169.800003,11.99
301,2778,1302,2059,1961,3250,47,4538,62,-252,2601,-185,-12600,0,0,361212,2963,72,-0.88,-0.8,1,7,43.070751,-77.171585,169.800003,11.99
362,2702,1262,1916,1857,3250,48,4538,62,-252,2503,-185,-14400,0,0,361213,2958,72,-1.59,-0.68,1,7,43.070751,-77.171585,169.800003,11.99
421,2619,1218,1832,1767,3250,48,4538,62,-252,2451,-185,-12600,0,0,361214,2969,72,-1.13,-0.74,1,7,43.070751,-77.171585,169.800003,11.99
482,2553,1179,1728,1682,3250,48,4538,62,-252,2510,-185,-12600,0,0,361215,2962,72,-1.38,-0.6,1,7,43.070751,-77.171585,169.800003,11.99
542,2564,1183,1690,1691,3250,48,4538,62,-252,2759,-185,0,0,0,361217,2966,72,0.17,0.07,1,7,43.070751,-77.171585,169.800003,11.99
602,2659,1226,1693,1784,3250,50,4538,62,-252,3075,-185,1320,0,0,361218,2969,72,1.62,0.74,1,7,43.070751,-77.171585,169.800003,11.99
662,2825,1285,1726,1915,3250,51,4538,62,-252,3333,-185,3960,0,0,361219,2965,72,2.31,0.94,1,7,43.070751,-77.171585,169.800003,11.99
722,3028,1340,1770,5050,3250,52,4405,60,-222,3463,-343,3190,3190,0,361221,2970,72,3.91,0.94,1,7,43.070751,-77.171585,169.800003,11.99
781,3223,1391,1810,5050,3250,53,4390,59,-27,3485,340,4290,5399,0,361222,2952,72,2.83,0.87,1,7,43.070751,-77.171585,169.800003,11.99
842,3365,1410,1875,5050,3250,53,4460,61,115,3473,298,6499,7112,0,361224,2957,72,2.74,0.32,1,7,43.070751,-77.171585,169.800003,11.99
901,3442,1402,1961,5050,3250,54,4573,59,192,3457,211,8137,8137,0,361225,2957,72,1.11,-0.13,1,7,43.070751,-77.171585,169.800003,11.99
961,3468,1393,2058,5050,3250,55,4703,60,218,3462,108,8604,8604,0,361226,2953,72,0.5,-0.15,1,7,43.070751,-77.171585,169.800003,11.99
1022,3469,1391,2160,5050,3250,55,4834,60,219,3468,33,8786,8786,0,361228,2946,72,0.01,-0.03,1,7,43.070789,-77.171616,169.800003,9.97
1082,3460,1394,2272,5050,3250,57,4962,61,210,3441,-3,8849,8849,0,361229,2945,72,-0.17,0.05,1,7,43.070789,-77.171616,169.800003,9.97
1142,3447,1405,2366,5050,3250,57,5000,59,197,3408,-16,8751,8751,0,361231,2944,72,-0.25,0.18,1,7,43.070789,-77.171616,171,9.97
1202,3438,1426,2477,5050,3250,57,5000,61,188,3412,-19,8648,8648,0,361232,2940,72,-0.13,0.35,1,7,43.070789,-77.171616,171,9.97
1262,3426,1446,2569,5050,3250,58,5000,60,176,3401,-16,8511,8511,0,361234,2943,72,-0.23,0.36,1,7,43.070789,-77.171616,171,9.97
1321,3403,1467,2667,5050,3250,59,5000,59,153,3357,-25,8248,8248,0,361235,2939,72,-0.32,0.35,1,7,43.070789,-77.171616,171,9.97
1382,3383,1494,2763,5050,3250,60,5000,61,133,3341,-36,8019,8019,0,361237,2935,72,-0.37,0.43,1,7,43.070789,-77.171616,171,9.97
1443,3368,1523,2864,5050,3250,59,5000,61,118,3330,-29,7848,7848,0,361238,2943,72,-0.28,0.47,1,7,43.070789,-77.171616,171,9.97
1502,3343,1549,2954,5050,3250,59,5000,59,93,3286,-30,7562,7562,0,361240,2940,72,-0.34,0.43,1,7,43.070789,-77.171616,171,9.97
1562,3309,1572,3040,5050,3250,60,5000,60,59,3235,-45,7161,7161,0,361242,2933,72,-0.61,0.41,1,7,43.070789,-77.171616,171,9.97
1623,3283,1607,3123,5050,3250,60,5000,60,33,3225,-55,6861,6861,0,361243,2939,72,-0.47,0.56,1,7,43.070789,-77.171616,171,9.97
1682,3255,1634,3201,5050,3250,59,5000,60,5,3202,-43,6553,6553,0,361245,2949,72,-0.5,0.47,1,7,43.070789,-77.171616,171,9.97
1743,3216,1645,3276,5050,3250,60,4980,61,-34,3135,-49,6108,6108,0,361247,2944,72,-0.68,0.17,1,7,43.070789,-77.171616,171,9.97
1804,3166,1662,3344,5050,3250,60,4929,61,-84,3035,-68,5502,5502,0,361248,2937,72,-0.63,0.3,1,7,43.070789,-77.171616,171,9.97
1864,3121,1678,3406,5050,3250,59,4852,60,-129,3012,-81,4917,4917,0,361250,2950,72,-0.75,0.26,1,7,43.070789,-77.171616,171,9.97
1924,3073,1686,3461,5050,3250,58,4748,59,-177,2985,-77,4265,4265,0,361252,2948,72,-1.19,0.13,1,7,43.070789,-77.171616,171,9.97
1984,3020,1689,3507,5050,3250,58,4608,61,-230,2935,-80,3512,3512,0,361254,2944,72,-0.86,0.05,1,7,43.070824,-77.171654,171,12.12
2045,2973,1720,3544,5050,3250,58,4440,61,-277,2899,-83,2787,2787,0,361255,2944,72,-0.76,0.49,1,7,43.070824,-77.171654,171,12.12
2105,2957,1740,3575,5050,3250,57,4265,60,-293,2956,-66,2387,2387,0,361257,2945,72,-0.26,0.34,1,7,43.070824,-77.171654,171.5,12.12
2166,2931,1752,3601,5050,3250,58,4071,61,-319,2880,-31,1855,1855,0,361259,2946,72,-0.42,0.19,1,7,43.070824,-77.171654,171.5,12.12
2226,2896,1751,3603,2909,3250,58,4071,61,-319,2812,-31,-5400,0,0,361261,2956,72,-0.55,-0.02,1,7,43.070824,-77.171654,171.5,12.12
2286,2864,1759,3403,2923,3250,57,4071,61,-319,2775,-31,-27000,0,0,361262,2956,72,-0.49,0.13,1,7,43.070824,-77.171654,171.5,12.12
2347,2849,1757,3062,2920,3250,48,4071,61,-319,2822,-31,-21600,0,0,361264,2964,72,-0.24,-0.03,1,7,43.070824,-77.171654,171.5,12.12
2408,2834,1738,2902,2887,3250,48,4071,61,-319,2883,-31,-7200,0,0,361266,2959,72,-0.24,-0.31,1,7,43.070824,-77.171654,171.5,12.12
2468,2851,1719,2862,2853,3250,48,4071,61,-319,2965,-31,-3600,0,0,361267,2960,72,0.28,-0.32,1,7,43.070824,-77.171654,171.5,12.12
2529,2882,1684,2829,2790,3250,48,4071,61,-319,2969,-31,-9000,0,0,361269,2958,72,0.51,-0.6,1,7,43.070824,-77.171654,171.5,12.12
2588,2933,1663,2792,5050,3250,48,3881,60,-317,3027,-91,880,1423,0,361271,2964,72,0.86,-0.35,1,7,43.070824,-77.171654,171.5,12.12
2648,3004,1651,2811,5050,3250,49,3734,60,-246,3176,93,2043,2043,0,361273,2956,72,1.25,-0.2,1,7,43.070824,-77.171654,171.5,12.12
2709,3094,1676,2838,5050,3250,54,3641,60,-156,3337,126,2951,2951,0,361274,2949,72,1.67,0.4,1,7,43.070824,-77.171654,171.5,12.12
2768,3177,1690,2876,5050,3250,56,3598,60,-73,3378,146,3843,3843,0,361276,2946,72,1.56,0.23,1,7,43.070824,-77.171654,171.5,12.12
2828,3253,1717,2924,5050,3250,57,3599,59,3,3347,137,4712,4712,0,361278,2934,72,1.06,0.47,1,7,43.070824,-77.171654,171.5,12.12
2887,3312,1734,2983,5050,3250,59,3636,60,62,3325,120,5431,5431,0,361279,2935,72,1.09,0.28,1,7,43.070824,-77.171654,171.5,12.12
2953,3349,1750,3055,5050,3250,58,3700,65,99,3361,83,5913,5913,0,361281,2945,72,0.52,0.26,1,7,43.070824,-77.171654,171.5,12.12
3012,3370,1763,3119,5050,3250,56,3772,60,120,3439,53,6214,6214,0,361283,2950,72,0.4,0.22,1,7,43.070866,-77.171707,171.5,14.03
3072,3374,1786,3193,5050,3250,58,3845,59,124,3398,28,6334,6334,0,361285,2950,72,0.06,0.38,1,7,43.070866,-77.171707,171.5,14.03
3132,3379,1829,3268,5050,3250,58,3923,61,129,3373,6,6489,6489,0,361287,2942,72,0.09,0.73,1,7,43.070866,-77.171707,172.399994,14.03
3192,3391,1879,3345,5050,3250,57,4006,59,141,3387,11,6726,6726,0,361289,2953,72,0.23,0.82,1,7,43.070866,-77.171707,172.399994,14.03
3251,3401,1921,3425,5050,3250,57,4095,59,151,3412,20,6950,6950,0,361291,2948,72,0.14,0.7,1,7,43.070866,-77.171707,172.399994,14.03
3312,3395,1951,3507,5050,3250,57,4183,61,145,3409,8,6999,6999,0,361293,2950,72,-0.11,0.51,1,7,43.070866,-77.171707,172.399994,14.03
3373,3387,1986,3596,5050,3250,58,4265,60,137,3356,-10,7020,7020,0,361295,2943,72,-0.11,0.55,1,7,43.070866,-77.171707,172.399994,14.03
3432,3375,2013,3671,5050,3250,59,4340,60,125,3314,-15,6989,6989,0,361297,2933,72,-0.22,0.46,1,7,43.070866,-77.171707,172.399994,14.03
3493,3360,2041,3759,5050,3250,59,4406,60,110,3309,-20,6912,6912,0,361299,2942,72,-0.28,0.46,1,7,43.070866,-77.171707,172.399994,14.03
3552,3337,2070,3832,5050,3250,59,4458,60,87,3300,-28,6732,6732,0,361302,2945,72,-0.42,0.49,1,7,43.070866,-77.171707,172.399994,14.03
3611,3312,2099,3910,5050,3250,58,4494,59,62,3282,-40,6510,6510,0,361304,2949,72,-0.34,0.5,1,7,43.070866,-77.171707,172.399994,14.03
3672,3289,2142,3986,5050,3250,59,4517,61,39,3240,-39,6292,6292,0,361306,2931,72,-0.41,0.71,1,7,43.070866,-77.171707,172.399994,14.03
3733,3238,2167,4062,5050,3250,59,4510,60,-12,3061,-51,5734,5734,0,361308,2950,72,-0.87,0.4,1,7,43.070866,-77.171707,172.399994,14.03
3792,3143,2175,4118,5050,3250,56,4446,60,-107,2833,-103,4626,4626,0,361310,2959,72,-1.5,0.14,1,7,43.070866,-77.171707,172.399994,14.03
3853,3021,2170,4168,5050,3250,55,4309,60,-229,2689,-168,3134,3134,0,361312,2960,72,-2.73,-0.08,1,7,43.070866,-77.171707,172.399994,14.03
3912,2879,2152,4178,3518,3250,54,4309,60,-229,2572,-168,-5400,0,0,361314,2962,72,-2.03,-0.29,1,7,43.070866,-77.171707,172.399994,14.03
3972,2723,2108,3978,3427,3250,54,4309,60,-229,2462,-168,-27000,0,0,361316,2956,72,-3.2,-0.79,1,7,43.070915,-77.171761,172.399994,16.96
4034,2593,2066,3563,3336,3250,47,4309,60,-229,2411,-168,-28800,0,0,361318,2960,72,-1.74,-0.64,1,7,43.070915,-77.171761,172.399994,16.96
4093,2526,2015,3325,3257,3250,48,4309,60,-229,2497,-168,-16200,0,0,361320,2959,72,-1.39,-0.86,1,7,43.070915,-77.171761,172.399994,16.96
4152,2509,1961,3215,3197,3250,48,4309,60,-229,2605,-168,-7200,0,0,361322,2966,72,-0.25,-0.96,1,7,43.070915,-77.171761,172,16.96
4213,2543,1913,3173,3141,3250,48,4309,60,-229,2743,-168,-9000,0,0,361324,2964,72,0.52,-0.79,1,7,43.070915,-77.171761,172,16.96
4273,2618,1880,3108,3101,3250,47,4309,60,-229,2837,-168,-5400,0,0,361326,2957,72,1.18,-0.54,1,7,43.070915,-77.171761,172,16.96
4332,2718,1856,3079,3071,3250,48,4309,60,-229,2910,-168,-5400,0,0,361328,2961,72,1.62,-0.39,1,7,43.070915,-77.171761,172,16.96
4391,2805,1831,3046,3039,3250,48,4309,60,-229,2930,-168,-3600,0,0,361329,2958,72,2.12,-0.45,1,7,43.070915,-77.171761,172,16.96
4453,2873,1808,3017,3004,3250,48,4309,60,-229,2946,-168,-7200,0,0,361331,2958,72,1.11,-0.36,1,7,43.070915,-77.171761,172,16.96
4513,2927,1788,3009,5050,3250,47,4119,59,-323,3014,-384,1320,1737,0,361333,2965,72,0.9,-0.33,1,7,43.070915,-77.171761,172,16.96
4572,2971,1766,3029,5050,3250,49,3952,60,-279,3059,86,2026,2026,0,361335,2957,72,0.75,-0.39,1,7,43.070915,-77.171761,172,16.96
4633,3003,1736,3056,5050,3250,56,3804,60,-247,3068,68,2210,2210,0,361336,2945,72,0.41,-0.48,1,7,43.070915,-77.171761,172,16.96
4692,3039,1732,3081,5050,3250,56,3678,60,-211,3111,55,2462,2462,0,361338,2956,72,0.62,-0.07,1,7,43.070915,-77.171761,172,16.96
4752,3082,1737,3111,5050,3250,57,3579,59,-168,3158,64,2821,2821,0,361340,2957,72,0.75,0.08,1,7,43.070915,-77.171761,172,16.96
4812,3114,1744,3148,5050,3250,57,3497,61,-136,3175,65,3079,3079,0,361342,2945,72,0.56,0.11,1,7,43.070915,-77.171761,172,16.96
4872,3137,1753,3182,5050,3250,57,3430,60,-113,3174,50,3242,3242,0,361343,2959,72,0.41,0.15,1,7,43.070915,-77.171761,172,16.96
4931,3160,1774,3221,5050,3250,57,3377,59,-90,3184,38,3421,3421,0,361345,2951,72,0.41,0.36,1,7,43.070915,-77.171761,172,16.96
4992,3179,1793,3265,5050,3250,56,3334,61,-71,3206,36,3569,3569,0,361347,2948,72,0.25,0.31,1,7,43.070969,-77.171791,172,13.56
5052,3179,1797,3303,5050,3250,57,3292,60,-71,3157,23,3514,3514,0,361349,2946,72,0,0.07,1,7,43.070969,-77.171791,172,13.56
5113,3173,1808,3347,5050,3250,58,3246,61,-77,3148,-1,3390,3390,0,361351,2946,72,-0.1,0.18,1,7,43.070969,-77.171791,171.699997,13.56
5174,3167,1821,3387,5050,3250,57,3196,61,-83,3143,-11,3260,3260,0,361352,2942,72,-0.1,0.21,1,7,43.070969,-77.171791,171.699997,13.56
5233,3157,1830,3424,5050,3250,57,3142,59,-93,3132,-10,3082,3082,0,361354,2953,72,-0.17,0.15,1,7,43.070969,-77.171791,171.699997,13.56
5293,3139,1836,3459,5050,3250,57,3076,60,-111,3117,-21,2802,2802,0,361356,2952,72,-0.31,0.11,1,7,43.070969,-77.171791,171.699997,13.56
5354,3127,1843,3490,5050,3250,57,3001,61,-123,3095,-26,2576,2576,0,361358,2955,72,-0.21,0.11,1,7,43.070969,-77.171791,171.699997,13.56
5413,3108,1841,3519,5050,3250,57,2918,59,-142,3054,-22,2263,2263,0,361360,2949,72,-0.32,-0.03,1,7,43.070969,-77.171791,171.699997,13.56
5473,3077,1822,3543,5050,3250,58,2815,60,-173,2990,-36,1795,1795,0,361362,2957,72,-0.52,-0.32,1,7,43.070969,-77.171791,171.699997,13.56
5534,3029,1812,3561,5050,3250,58,2681,61,-221,2891,-59,1104,1104,0,361363,2951,72,-0.77,-0.17,1,7,43.070969,-77.171791,171.699997,13.56
5593,2991,1801,3571,5050,3250,57,2529,59,-259,2925,-77,496,496,0,361365,2961,72,-0.62,-0.18,1,7,43.070969,-77.171791,171.699997,13.56
5653,2957,1806,3574,700,3250,56,2354,60,-293,2927,-60,-97,-97,0,361367,2963,72,-0.55,0.09,1,7,43.070969,-77.171791,171.699997,13.56
5714,2936,1810,3571,700,3250,55,2163,61,-314,2951,-50,-572,-572,0,361369,2961,72,-0.34,0.07,1,7,43.070969,-77.171791,171.699997,13.56
5773,2932,1842,3563,700,3250,55,1976,59,-318,2967,-27,-859,-859,0,361371,2957,72,-0.07,0.51,1,7,43.070969,-77.171791,171.699997,13.56
5833,2957,1866,3553,700,3250,47,1801,60,-293,3016,5,-816,-816,0,361373,2963,72,0.42,0.41,1,7,43.070969,-77.171791,171.699997,13.56
5893,2975,1889,3543,700,3250,48,1639,59,-275,3017,37,-833,-833,0,361375,2965,72,0.3,0.39,1,7,43.070969,-77.171791,171.699997,13.56
5953,3003,1904,3534,700,3250,48,1489,61,-247,3064,34,-726,-726,0,361377,2962,72,0.48,0.24,1,7,43.070969,-77.171791,171.699997,13.56
6013,3029,1923,3526,700,3250,48,1357,60,-221,3081,46,-617,-617,0,361379,2966,72,0.45,0.33,1,7,43.071026,-77.171783,171.699997,14.17
6073,3057,1932,3519,700,3250,48,1242,60,-193,3108,43,-465,-465,0,361381,2966,72,0.48,0.15,1,7,43.071026,-77.171783,171.699997,14.17
6134,3084,1948,3515,700,3250,48,1141,61,-166,3153,45,-305,-305,0,361383,2962,72,0.35,0.26,1,7,43.071026,-77.171783,171.5,14.17
6194,3120,1969,3513,700,3250,49,1063,60,-130,3198,50,-20,-20,0,361385,2961,72,0.64,0.36,1,7,43.071026,-77.171783,171.5,14.17
6254,3157,1996,3513,5050,3250,49,1008,60,-93,3248,60,308,308,0,361387,2959,72,0.67,0.44,1,7,43.071026,-77.171783,171.5,14.17
6315,3193,2013,3518,5050,3250,49,974,61,-57,3260,59,652,652,0,361389,2967,72,0.65,0.29,1,7,43.071026,-77.171783,171.5,14.17
6375,3209,2008,3526,5050,3250,54,950,60,-41,3186,51,794,794,0,361391,2943,72,0.21,-0.08,1,7,43.071026,-77.171783,171.5,14.17
6435,3208,1998,3535,5050,3250,60,925,60,-42,3151,20,750,750,0,361393,2957,72,-0.02,-0.17,1,7,43.071026,-77.171783,171.5,14.17
6499,3198,1988,3544,5050,3250,58,892,64,-52,3146,-4,599,599,0,361395,2953,72,-0.17,-0.16,1,7,43.071026,-77.171783,171.5,14.17
6559,3194,1983,3551,5050,3250,55,859,60,-56,3230,-15,513,513,0,361397,2959,72,-0.07,-0.08,1,7,43.071026,-77.171783,171.5,14.17
6619,3185,1974,3556,5050,3250,57,820,60,-65,3215,-8,366,366,0,361399,2960,72,-0.12,-0.16,1,7,43.071026,-77.171783,171.5,14.17
6680,3163,1958,3559,5050,3250,57,767,61,-87,3076,-21,60,60,0,361401,2958,72,-0.38,-0.26,1,7,43.071026,-77.171783,171.5,14.17
6740,3132,1944,3558,700,3250,57,697,60,-118,2994,-38,-365,-365,0,361402,2957,72,-0.52,-0.23,1,7,43.071026,-77.171783,171.5,14.17
6800,3100,1918,3552,700,3250,56,609,59,-150,2986,-52,-825,-825,0,361404,2961,72,-0.53,-0.43,1,7,43.071026,-77.171783,171.5,14.17
6860,3054,1888,3539,700,3250,52,490,61,-196,3000,-59,-1475,-1475,0,361406,2959,72,-0.77,-0.51,1,7,43.071026,-77.171783,171.5,14.17
6920,3026,1892,3519,700,3250,46,356,60,-224,3078,-70,-1952,-1952,0,361408,2967,72,-0.48,0.07,1,7,43.071026,-77.171783,171.5,14.17
6980,3047,1938,3497,700,3250,48,237,59,-203,3181,-27,-1879,-1879,0,361410,2961,72,0.37,0.75,1,7,43.071056,-77.17173,171.5,13.71
7039,3082,1957,3476,700,3250,48,137,60,-168,3167,41,-1632,-1632,0,361412,2958,72,0.62,0.33,1,7,43.071056,-77.17173,171.5,13.71
7100,3112,1979,3458,700,3250,48,53,61,-138,3136,55,-1419,-1419,0,361414,2962,72,0.52,0.36,1,7,43.071056,-77.17173,171.300003,13.71
7160,3143,1996,3442,700,3250,48,-11,60,-107,3154,50,-1167,-1167,0,361416,2960,72,0.54,0.28,1,7,43.071056,-77.17173,171.300003,13.71
7220,3166,1986,3430,700,3250,48,-60,59,-84,3192,49,-983,-983,0,361418,2965,72,0.31,-0.16,1,7,43.071056,-77.17173,171.300003,13.71
7280,3172,1971,3418,700,3250,47,-107,61,-78,3211,31,-979,-979,0,361420,2966,72,0.11,-0.25,1,7,43.071056,-77.17173,171.300003,13.71
7340,3173,1965,3406,700,3250,47,-153,60,-77,3172,8,-1027,-1027,0,361422,2968,72,0.02,-0.1,1,7,43.071056,-77.17173,171.300003,13.71
7400,3167,1946,3394,700,3250,47,-201,59,-83,3107,-3,-1155,-1155,0,361424,2958,72,-0.1,-0.32,1,7,43.071056,-77.17173,171.300003,13.71
7461,3154,1936,3379,700,3250,47,-259,61,-96,3091,-11,-1370,-1370,0,361426,2958,72,-0.22,-0.16,1,7,43.071056,-77.17173,171.300003,13.71
7520,3153,1955,3363,700,3250,47,-317,60,-97,3187,-16,-1457,-1457,0,361428,2971,72,-0.02,0.32,1,7,43.071056,-77.17173,171.300003,13.71
7580,3156,1958,3345,700,3250,48,-373,60,-94,3226,0,-1497,-1497,0,361430,2959,72,0.04,0.05,1,7,43.071056,-77.17173,171.300003,13.71
7641,3154,1963,3327,700,3250,48,-430,60,-96,3159,3,-1593,-1593,0,361432,2967,72,-0.04,0.08,1,7,43.071056,-77.17173,171.300003,13.71
7700,3155,1973,3308,700,3250,48,-487,60,-95,3114,-3,-1656,-1656,0,361434,2960,72,0.02,0.17,1,7,43.071056,-77.17173,171.300003,13.71
7760,3141,1968,3288,700,3250,48,-552,60,-109,3023,-3,-1891,-1891,0,361436,2958,72,-0.24,-0.08,1,7,43.071056,-77.17173,171.300003,13.71
7821,3087,1935,3262,700,3250,48,-649,60,-163,2913,-41,-2599,-2599,0,361438,2964,72,-0.87,-0.55,1,7,43.071056,-77.17173,171.300003,13.71
7880,2998,1886,3226,700,3250,48,-800,60,-252,2783,-103,-3755,-3755,0,361439,2958,72,-1.38,-0.78,1,7,43.071056,-77.17173,171.300003,13.71
7940,2910,1848,3176,700,3250,48,-1000,59,-340,2721,-150,-4964,-4964,0,361441,2963,72,-2,-0.64,1,7,43.071056,-77.17173,171.300003,13.71
8001,2823,1812,3092,3010,3250,48,-1000,59,-340,2675,-150,-13964,0,0,361443,2972,72,-1.29,-0.6,1,7,43.071068,-77.171646,171.300003,15.04
8061,2757,1774,2974,2948,3250,48,-1000,59,-340,2694,-150,-10364,0,0,361444,2962,72,-0.99,-0.62,1,7,43.071068,-77.171646,171.300003,15.04
8121,2716,1734,2923,2880,3250,48,-1000,59,-340,2711,-150,-9000,0,0,361446,2960,72,-0.93,-0.69,1,7,43.071068,-77.171646,170.899994,15.04
8182,2705,1711,2853,2839,3250,48,-1000,59,-340,2727,-150,-7200,0,0,361448,2962,72,-0.17,-0.39,1,7,43.071068,-77.171646,170.899994,15.04
8242,2708,1696,2819,2812,3250,49,-1000,59,-340,2735,-150,-5400,0,0,361450,2968,72,0.05,-0.24,1,7,43.071068,-77.171646,170.899994,15.04
8301,2724,1672,2786,2767,3250,48,-1000,59,-340,2755,-150,-9000,0,0,361451,2964,72,0.24,-0.4,1,7,43.071068,-77.171646,170.899994,15.04
8362,2737,1657,2746,2739,3250,47,-1000,59,-340,2761,-150,-5400,0,0,361453,2970,72,0.3,-0.25,1,7,43.071068,-77.171646,170.899994,15.04
8422,2754,1664,2742,2752,3250,48,-1000,59,-340,2796,-150,1100,0,0,361455,2968,72,0.26,0.11,1,7,43.071068,-77.171646,170.899994,15.04
8481,2783,1676,2754,2775,3250,49,-1000,59,-340,2869,-150,1100,0,0,361456,2966,72,0.46,0.21,1,7,43.071068,-77.171646,170.899994,15.04
8542,2816,1666,2760,2756,3250,52,-1000,59,-340,2903,-150,-1800,0,0,361458,2961,72,0.53,-0.16,1,7,43.071068,-77.171646,170.899994,15.04
8602,2842,1663,2750,2750,3250,53,-1000,59,-340,2885,-150,0,0,0,361459,2964,72,0.42,-0.05,1,7,43.071068,-77.171646,170.899994,15.04
8660,2859,1647,2728,2720,3250,48,-1000,59,-340,2842,-150,-5400,0,0,361461,2966,72,0.27,-0.26,1,7,43.071068,-77.171646,170.899994,15.04
8720,2875,1628,2697,2682,3250,48,-1000,59,-340,2878,-150,-7200,0,0,361463,2959,72,0.26,-0.34,1,7,43.071068,-77.171646,170.899994,15.04
8781,2888,1604,2657,2634,3250,48,-1000,59,-340,2934,-150,-9000,0,0,361464,2964,72,0.32,-0.4,1,7,43.071068,-77.171646,170.899994,15.04
8841,2904,1606,2615,700,3250,48,-1204,59,-346,2983,-140,-5518,-5518,0,361466,2963,72,0.27,0.03,1,7,43.071068,-77.171646,170.899994,15.04
8900,2930,1608,2551,700,3250,48,-1396,60,-320,3013,30,-5470,-5470,0,361467,2958,72,0.44,0.03,1,7,43.071068,-77.171646,170.899994,15.04
