version:,4
time engine rpm secondary rpm dc motor pos dc motor target pos target rpm hlfb PI integral term PID dt Error engine raw rpm derivative of error signed motor velocity motor target velocity tire slipping (bool) secondary total rotations raw battery analog battery SOC primary slope secondary slope brake sensor (on/off) current state latitude longitude altitude gps speed (mph)
0,2312,883,1150,1127,3250,50,3371,31,-268,2313,-251,-7200,0,0,85868,3118,84,-0.35,-1.29,1,7,43.070766,-77.171593,166.899994,10.84
30,2326,871,1124,1116,3250,49,3371,31,-268,2417,-251,-5400,0,0,85868,3120,84,0.56,-0.35,1,7,43.070766,-77.171593,166.899994,10.84
59,2355,860,1111,1106,3250,49,3371,31,-268,2477,-251,-3600,0,0,85869,3121,84,1.2,-0.43,1,7,43.070766,-77.171593,166.899994,10.84
88,2423,852,1103,1099,3250,49,3371,31,-268,2642,-251,-3600,0,0,85869,3121,84,1.5,-0.22,1,7,43.070766,-77.171593,166.899994,10.84
118,2529,869,1100,1115,3250,49,3371,31,-268,2799,-251,440,0,0,85870,3118,84,4.95,0.7,1,7,43.070766,-77.171593,169.199997,10.84
148,2644,882,1107,1126,3250,49,3371,31,-268,2886,-251,1760,0,0,85870,3116,84,2.77,0.39,1,7,43.070766,-77.171593,169.199997,10.84
176,2755,878,1119,1123,3250,50,3371,31,-268,2972,-251,2860,0,0,85871,3117,84,5.5,-0.15,1,7,43.070766,-77.171593,169.199997,10.84
207,2876,887,1121,1131,3250,54,3371,31,-268,3082,-251,660,0,0,85871,3116,84,3.11,0.28,1,7,43.070766,-77.171593,169.199997,10.84
235,2984,914,1123,700,3250,53,3297,28,-266,3182,-500,-1303,-1303,0,85872,3126,84,5.73,0.87,1,7,43.070766,-77.171593,169.199997,10.84
265,3073,928,1118,5050,3250,52,3244,30,-177,3244,343,220,4271,0,85872,3123,84,2.41,0.62,1,7,43.070766,-77.171593,169.199997,10.84
293,3157,951,1124,5050,3250,52,3218,28,-93,3308,310,1540,5260,0,85873,3121,84,4.63,0.77,1,7,43.070766,-77.171593,169.199997,10.84
324,3242,991,1137,5050,3250,49,3216,31,-8,3395,270,2860,6264,0,85873,3115,84,2.41,1.13,1,7,43.070766,-77.171593,169.199997,10.84
353,3325,1028,1158,5050,3250,49,3237,28,75,3496,303,4180,7655,0,85874,3126,84,2.42,1.38,1,7,43.070766,-77.171593,169.199997,10.84
383,3407,1072,1187,5050,3250,53,3284,30,157,3594,273,5500,8744,0,85874,3120,84,2.46,1.39,1,7,43.070766,-77.171593,169.199997,10.84
412,3491,1111,1224,5050,3250,53,3356,30,241,3664,276,6820,9791,0,85875,3118,84,5.13,1.54,1,7,43.070766,-77.171593,169.199997,10.84
442,3567,1150,1269,5050,3250,52,3451,30,317,3687,273,8140,12940,0,85875,3119,84,2.34,1.26,1,7,43.070766,-77.171593,169.199997,10.84
470,3627,1183,1312,5050,3250,52,3556,28,377,3698,257,9240,13057,0,85876,3115,84,1.85,1.08,1,7,43.070766,-77.171593,169.199997,10.84
501,3666,1202,1370,5050,3250,53,3684,31,416,3687,177,10560,12607,0,85877,3117,84,1.2,0.62,1,7,43.070766,-77.171593,169.199997,10.84
530,3679,1209,1437,5050,3250,54,3804,28,429,3659,114,11880,12308,0,85877,3113,84,0.4,0.28,1,7,43.070766,-77.171593,169.199997,10.84
559,3673,1214,1509,5050,3250,54,3930,30,423,3636,30,12427,12427,0,85878,3111,84,-0.36,0.16,1,7,43.070766,-77.171593,169.199997,10.84
590,3661,1216,1582,5050,3250,54,4057,31,411,3626,-25,12462,12462,0,85878,3112,84,-0.36,0.06,1,7,43.070766,-77.171593,169.199997,10.84
618,3645,1217,1654,5050,3250,55,4167,28,395,3618,-46,12412,12412,0,85879,3108,84,-0.48,0.03,1,7,43.070766,-77.171593,169.199997,10.84
648,3625,1218,1727,5050,3250,56,4275,29,375,3589,-58,12302,12302,0,85880,3095,84,-0.6,0.03,1,7,43.070766,-77.171593,169.199997,10.84
678,3610,1229,1799,5050,3250,56,4383,30,360,3581,-63,12262,12262,0,85880,3103,84,-0.9,0.37,1,7,43.070766,-77.171593,169.199997,10.84
707,3597,1245,1871,5050,3250,57,4487,30,347,3574,-46,12247,12247,0,85881,3108,84,-0.39,0.55,1,7,43.070766,-77.171593,169.199997,10.84
736,3589,1264,1931,5050,3250,56,4581,28,339,3586,-42,12285,12285,0,85882,3108,84,-0.24,0.67,1,7,43.070766,-77.171593,169.199997,10.84
766,3585,1291,2003,5050,3250,56,4684,31,335,3599,-22,12396,12396,0,85882,3105,84,-0.12,0.98,1,7,43.070766,-77.171593,169.199997,10.84
796,3588,1324,2076,5050,3250,56,4785,30,338,3600,-6,12602,12602,0,85883,3098,84,0.09,1.02,1,7,43.070766,-77.171593,169.199997,10.84
824,3589,1344,2150,5050,3250,56,4879,28,339,3587,10,12768,12768,0,85884,3100,84,0.06,0.73,1,7,43.070766,-77.171593,169.199997,10.84
855,3593,1369,2225,5050,3250,58,4985,31,343,3594,3,12998,12998,0,85884,3111,84,0.12,0.79,1,7,43.070766,-77.171593,169.199997,10.84
884,3592,1394,2301,5050,3250,58,5000,28,342,3583,10,13010,13010,0,85885,3093,84,-0.03,0.96,1,7,43.070766,-77.171593,169.199997,10.84
913,3584,1409,2377,5050,3250,58,5000,30,334,3558,-6,12895,12895,0,85886,3071,84,-0.24,0.48,1,7,43.070766,-77.171593,169.199997,10.84
942,3572,1424,2453,5050,3250,59,5000,28,322,3541,-32,12723,12723,0,85886,3105,84,-0.71,0.49,1,7,43.070766,-77.171593,169.199997,10.84
973,3559,1453,2527,5050,3250,60,5000,31,309,3519,-41,12537,12537,0,85887,3093,84,-0.38,0.97,1,7,43.070766,-77.171593,169.199997,10.84
1002,3542,1478,2593,5050,3250,59,5000,30,292,3511,-46,9836,9836,0,85888,3101,84,-0.5,0.86,1,7,43.070805,-77.171623,169.199997,9.28
1031,3526,1509,2641,5050,3250,60,5000,28,276,3504,-60,9653,9653,0,85889,3097,84,-0.93,1.1,1,7,43.070805,-77.171623,169.199997,9.28
1062,3522,1547,2697,5050,3250,59,5000,31,272,3538,-41,9608,9608,0,85890,3102,84,-0.12,1.18,1,7,43.070805,-77.171623,169.199997,9.28
1090,3517,1576,2753,5050,3250,58,5000,28,267,3514,-14,9551,9551,0,85890,3097,84,-0.15,1.04,1,7,43.070805,-77.171623,169.199997,9.28
1120,3504,1595,2809,5050,3250,60,5000,30,254,3455,-23,9402,9402,0,85891,3093,84,-0.37,0.68,1,7,43.070805,-77.171623,169.199997,9.28
1150,3486,1609,2864,5050,3250,60,5000,31,236,3422,-45,9196,9196,0,85892,3093,84,-1.03,0.43,1,7,43.070805,-77.171623,169.199997,9.28
1179,3461,1618,2917,5050,3250,60,5000,28,211,3378,-71,8911,8911,0,85893,3085,84,-0.7,0.33,1,7,43.070805,-77.171623,169.199997,9.28
1208,3425,1626,2968,5050,3250,60,5000,30,175,3358,-93,8490,8490,0,85894,3085,84,-1.01,0.25,1,7,43.070805,-77.171623,169.199997,9.28
1238,3389,1643,3017,5050,3250,62,5000,30,139,3333,-120,8058,8058,0,85894,3096,84,-2,0.64,1,7,43.070805,-77.171623,169.199997,9.28
1268,3362,1659,3064,5050,3250,60,5000,29,112,3321,-117,7741,7741,0,85895,3098,84,-0.75,0.51,1,7,43.070805,-77.171623,169.199997,9.28
1297,3340,1676,3108,5050,3250,60,5000,30,90,3312,-83,7484,7484,0,85896,3101,84,-1.21,0.55,1,7,43.070805,-77.171623,169.199997,9.28
1327,3320,1698,3151,5050,3250,60,5000,30,70,3280,-70,7255,7255,0,85897,3097,84,-0.55,0.73,1,7,43.070805,-77.171623,169.199997,9.28
1357,3301,1712,3193,5050,3250,61,5000,30,51,3259,-66,7049,7049,0,85898,3088,84,-0.52,0.46,1,7,43.070805,-77.171623,169.199997,9.28
1386,3276,1716,3227,5050,3250,60,5000,28,26,3208,-75,6780,6780,0,85899,3098,84,-1.34,0.15,1,7,43.070805,-77.171623,169.199997,9.28
1417,3244,1716,3272,5050,3250,60,4999,31,-6,3164,-83,6434,6434,0,85900,3099,84,-0.84,0,1,7,43.070805,-77.171623,169.199997,9.28
1445,3206,1716,3303,5050,3250,60,4987,29,-44,3122,-117,6009,6009,0,85900,3101,84,-1.98,0,1,7,43.070805,-77.171623,169.199997,9.28
1475,3161,1707,3337,5050,3250,60,4961,30,-89,3056,-133,5490,5490,0,85901,3097,84,-1.15,-0.29,1,7,43.070805,-77.171623,169.199997,9.28
1505,3114,1708,3368,5050,3250,61,4921,30,-136,3021,-153,4932,4932,0,85902,3109,84,-2.37,0.03,1,7,43.070805,-77.171623,169.199997,9.28
1535,3080,1714,3396,5050,3250,60,4872,29,-170,3037,-148,4501,4501,0,85903,3107,84,-0.86,0.2,1,7,43.070805,-77.171623,169.199997,9.28
1564,3058,1734,3422,5050,3250,59,4815,30,-192,3056,-103,4190,4190,0,85904,3109,84,-1.12,0.68,1,7,43.070805,-77.171623,169.199997,9.28
1593,3040,1755,3446,5050,3250,58,4757,28,-210,3030,-75,3921,3921,0,85905,3100,84,-0.45,0.72,1,7,43.070805,-77.171623,169.199997,9.28
1624,3027,1772,3469,5050,3250,57,4686,32,-223,2991,-53,3688,3688,0,85906,3109,84,-0.65,0.51,1,7,43.070805,-77.171623,169.199997,9.28
1654,3020,1779,3490,5050,3250,58,4620,29,-230,2990,-37,3528,3528,0,85906,3105,84,-0.17,0.24,1,7,43.070805,-77.171623,169.199997,9.28
1682,3011,1785,3510,5050,3250,58,4551,29,-239,2992,-27,3341,3341,0,85907,3105,84,-0.45,0.24,1,7,43.070805,-77.171623,169.199997,9.28
1713,2991,1783,3529,5050,3250,59,4471,31,-259,2954,-38,3021,3021,0,85908,3100,84,-0.49,-0.06,1,7,43.070805,-77.171623,169.199997,9.28
1742,2965,1773,3543,5050,3250,59,4392,28,-285,2901,-75,2638,2638,0,85909,3107,84,-1.26,-0.39,1,7,43.070805,-77.171623,169.199997,9.28
1771,2943,1756,3558,5050,3250,60,4300,30,-307,2880,-86,2282,2282,0,85910,3093,84,-0.53,-0.55,1,7,43.070805,-77.171623,169.199997,9.28
1801,2917,1750,3570,5050,3250,60,4201,30,-333,2859,-73,1873,1873,0,85911,3105,84,-1.24,-0.2,1,7,43.070805,-77.171623,169.199997,9.28
1831,2880,1749,3578,2906,3250,60,4201,30,-333,2807,-73,0,0,0,85912,3111,84,-1.73,-0.03,1,7,43.070805,-77.171623,169.199997,9.28
1860,2855,1747,3542,2902,3250,59,4201,30,-333,2829,-73,-10800,0,0,85913,3122,84,-0.59,-0.07,1,7,43.070805,-77.171623,169.199997,9.28
1891,2848,1766,3441,2935,3250,57,4201,30,-333,2867,-73,-21600,0,0,85913,3126,84,-0.33,0.67,1,7,43.070805,-77.171623,169.199997,9.28
1921,2852,1803,3278,2996,3250,46,4201,30,-333,2898,-73,-32400,0,0,85914,3120,84,0.1,1.16,1,7,43.070805,-77.171623,169.199997,9.28
1950,2862,1823,3125,3028,3250,49,4201,30,-333,2912,-73,-21600,0,0,85915,3120,84,0.49,0.71,1,7,43.070805,-77.171623,169.199997,9.28
1981,2888,1820,3035,3023,3250,48,4201,30,-333,2936,-73,-10800,0,0,85916,3119,84,0.64,-0.1,1,7,43.070805,-77.171623,169.199997,9.28
2009,2918,1822,3009,5050,3250,49,4105,29,-332,2977,-141,0,1625,0,85917,3117,84,1.49,0.07,1,7,43.070839,-77.171661,169.199997,13.19
2039,2945,1801,3013,5050,3250,49,4014,30,-305,3005,96,1320,1809,0,85918,3119,84,0.68,-0.7,1,7,43.070839,-77.171661,169.199997,13.19
2068,2977,1776,3024,5050,3250,49,3935,29,-273,3059,96,2071,2071,0,85919,3121,84,1.63,-0.84,1,7,43.070839,-77.171661,169.199997,13.19
2099,3020,1757,3037,5050,3250,49,3864,31,-230,3126,112,2468,2468,0,85920,3113,84,1.12,-0.64,1,7,43.070839,-77.171661,169.199997,13.19
2128,3063,1762,3052,5050,3250,54,3810,29,-187,3149,148,2884,2884,0,85921,3112,84,2.26,0.17,1,7,43.070839,-77.171661,169.899994,13.19
2158,3098,1758,3069,5050,3250,55,3765,30,-152,3151,136,3221,3221,0,85921,3111,84,0.92,-0.13,1,7,43.070839,-77.171661,169.899994,13.19
2188,3125,1759,3088,5050,3250,56,3728,30,-125,3142,110,3478,3478,0,85922,3116,84,1.41,0.03,1,7,43.070839,-77.171661,169.899994,13.19
2218,3144,1757,3109,5050,3250,56,3697,30,-106,3156,83,3653,3653,0,85923,3103,84,0.5,-0.07,1,7,43.070839,-77.171661,169.899994,13.19
2247,3153,1761,3127,5050,3250,57,3670,28,-97,3169,60,3721,3721,0,85924,3106,84,0.48,0.14,1,7,43.070839,-77.171661,169.899994,13.19
2278,3153,1763,3152,5050,3250,57,3639,32,-97,3151,18,3685,3685,0,85925,3106,84,0,0.07,1,7,43.070839,-77.171661,169.899994,13.19
2308,3158,1772,3174,5050,3250,58,3613,29,-92,3173,3,3705,3705,0,85926,3105,84,0.13,0.31,1,7,43.070839,-77.171661,169.899994,13.19
2337,3163,1783,3192,5050,3250,57,3588,29,-87,3167,17,3727,3727,0,85927,3112,84,0.26,0.38,1,7,43.070839,-77.171661,169.899994,13.19
2368,3168,1797,3218,5050,3250,57,3563,31,-82,3184,19,3748,3748,0,85928,3109,84,0.13,0.42,1,7,43.070839,-77.171661,169.899994,13.19
2396,3177,1804,3236,5050,3250,56,3542,29,-73,3210,20,3818,3818,0,85929,3108,84,0.48,0.24,1,7,43.070839,-77.171661,169.899994,13.19
2426,3177,1808,3258,5050,3250,57,3521,30,-73,3154,20,3791,3791,0,85929,3103,84,0,0.14,1,7,43.070839,-77.171661,169.899994,13.19
2456,3164,1800,3280,5050,3250,58,3496,30,-86,3106,-10,3618,3618,0,85930,3111,84,-0.67,-0.27,1,7,43.070839,-77.171661,169.899994,13.19
2486,3146,1782,3301,5050,3250,58,3465,30,-104,3078,-46,3384,3384,0,85931,3110,84,-0.46,-0.59,1,7,43.070839,-77.171661,169.899994,13.19
2515,3116,1760,3320,5050,3250,58,3428,28,-134,3032,-75,3012,3012,0,85932,3111,84,-1.52,-0.83,1,7,43.070839,-77.171661,169.899994,13.19
2546,3070,1741,3337,5050,3250,59,3373,31,-180,2982,-109,2445,2445,0,85933,3116,84,-1.14,-0.55,1,7,43.070839,-77.171661,169.899994,13.19
2576,3028,1736,3350,5050,3250,58,3307,30,-222,2943,-150,1907,1907,0,85934,3124,84,-2.06,-0.17,1,7,43.070839,-77.171661,169.899994,13.19
2604,3006,1754,3361,5050,3250,58,3237,29,-244,2997,-127,1579,1579,0,85935,3119,84,-0.55,0.64,1,7,43.070839,-77.171661,169.899994,13.19
2634,3009,1798,3370,5050,3250,57,3165,30,-241,3091,-53,1517,1517,0,85936,3118,84,0.15,1.63,1,7,43.070839,-77.171661,169.899994,13.19
2664,3028,1858,3379,5050,3250,55,3099,30,-222,3127,23,1636,1636,0,85937,3113,84,0.5,1.78,1,7,43.070839,-77.171661,169.899994,13.19
2694,3073,1922,3389,5050,3250,55,3046,30,-177,3210,86,2052,2052,0,85938,3111,84,1.2,2.18,1,7,43.070839,-77.171661,169.899994,13.19
2723,3132,1971,3402,5050,3250,55,3012,29,-118,3237,165,2492,2644,0,85939,3112,84,3.18,1.88,1,7,43.070839,-77.171661,169.899994,13.19
2754,3176,1981,3418,5050,3250,54,2990,31,-74,3219,180,3084,3090,0,85940,3112,84,1.18,0.32,1,7,43.070839,-77.171661,169.899994,13.19
2783,3189,1965,3436,5050,3250,55,2973,28,-61,3153,128,3207,3207,0,85940,3104,84,0.68,-0.57,1,7,43.070839,-77.171661,169.899994,13.19
2813,3176,1926,3454,5050,3250,57,2951,30,-74,3062,20,3039,3039,0,85941,3117,84,-0.33,-1.18,1,7,43.070839,-77.171661,169.899994,13.19
2843,3130,1875,3471,5050,3250,58,2915,30,-120,2983,-70,2496,2496,0,85942,3109,84,-2.29,-1.74,1,7,43.070839,-77.171661,169.899994,13.19
2872,3075,1822,3483,5050,3250,58,2863,30,-175,2961,-163,1836,1836,0,85943,3110,84,-1.36,-1.77,1,7,43.070839,-77.171661,169.899994,13.19
2901,3022,1797,3491,5050,3250,58,2797,29,-228,2952,-186,1179,1179,0,85944,3116,84,-2.61,-0.99,1,7,43.070839,-77.171661,169.899994,13.19
2984,2988,1806,3509,5050,3250,58,2583,82,-262,2983,-58,534,534,0,85947,3122,84,-0.42,0.11,1,7,43.070839,-77.171661,169.899994,13.19
3018,2993,1846,3513,5050,3250,56,2496,34,-257,3088,-70,475,475,0,85948,3111,84,0.13,1.07,1,7,43.070839,-77.171661,169.899994,13.19
3047,3017,1892,3516,5050,3250,56,2427,30,-233,3104,30,644,644,0,85949,3120,84,0.62,1.55,1,7,43.070839,-77.171661,169.899994,13.19
3077,3049,1951,3521,5050,3250,55,2367,30,-201,3118,86,911,911,0,85950,3114,84,1.66,2.01,1,7,43.070839,-77.171661,169.899994,13.19
3107,3088,1992,3526,5050,3250,55,2321,29,-162,3151,117,1272,1272,0,85951,3106,84,1.02,1.36,1,7,43.070839,-77.171661,169.899994,13.19
3135,3120,2007,3534,5050,3250,55,2284,29,-130,3143,131,1568,1568,0,85952,3114,84,1.68,0.56,1,7,43.070889,-77.171715,170.699997,13.19
3166,3122,1997,3543,5050,3250,57,2245,31,-128,3094,77,1539,1539,0,85953,3109,84,0.05,-0.33,1,7,43.070889,-77.171715,170.699997,13.19
3195,3116,1992,3552,5050,3250,56,2208,28,-134,3075,0,1426,1426,0,85954,3117,84,-0.31,-0.17,1,7,43.070889,-77.171715,170.699997,13.19
3224,3116,1984,3560,5050,3250,57,2168,30,-134,3119,-13,1374,1374,0,85955,3118,84,0,-0.27,1,7,43.070889,-77.171715,170.699997,13.19
3253,3121,2000,3568,5050,3250,57,2132,28,-129,3174,3,1381,1381,0,85956,3114,84,0.26,0.55,1,7,43.070889,-77.171715,170.699997,13.19
3284,3129,2025,3576,5050,3250,56,2095,31,-121,3187,16,1419,1419,0,85957,3114,84,0.21,0.88,1,7,43.070889,-77.171715,170.699997,13.19
3314,3152,2049,3585,5050,3250,56,2066,30,-98,3205,40,1629,1629,0,85958,3113,84,0.61,0.83,1,7,43.070889,-77.171715,170.699997,13.19
3342,3173,2062,3595,5050,3250,56,2044,29,-77,3181,79,1828,1828,0,85959,3109,84,1.11,0.45,1,7,43.070889,-77.171715,170.699997,13.19
3373,3186,2069,3606,5050,3250,56,2025,31,-64,3183,58,1943,1943,0,85960,3112,84,0.34,0.21,1,7,43.070889,-77.171715,170.699997,13.19
3402,3189,2071,3615,5050,3250,56,2008,28,-61,3191,39,1953,1953,0,85961,3109,84,0.16,0.07,1,7,43.070889,-77.171715,170.699997,13.19
3431,3187,2071,3627,5050,3250,57,1990,30,-63,3178,3,1909,1909,0,85962,3109,84,-0.05,0,1,7,43.070889,-77.171715,170.699997,13.19
3461,3183,2080,3638,5050,3250,56,1970,30,-67,3184,-6,1839,1839,0,85963,3117,84,-0.21,0.32,1,7,43.070889,-77.171715,170.699997,13.19
3491,3192,2103,3649,5050,3250,56,1954,29,-58,3227,0,1915,1915,0,85964,3111,84,0.24,0.74,1,7,43.070889,-77.171715,170.699997,13.19
3519,3210,2130,3660,5050,3250,57,1943,29,-40,3270,37,2094,2094,0,85965,3110,84,0.49,0.98,1,7,43.070889,-77.171715,170.699997,13.19
3550,3234,2161,3673,5050,3250,56,1939,31,-16,3314,61,2348,2348,0,85966,3111,84,1.33,1.02,1,7,43.070889,-77.171715,170.699997,13.19
3579,3259,2182,3687,5050,3250,56,1941,28,9,3304,85,2619,2619,0,85967,3110,84,0.69,0.69,1,7,43.070889,-77.171715,170.699997,13.19
3609,3284,2204,3703,5050,3250,57,1951,30,34,3307,86,2902,2902,0,85968,3105,84,1.38,0.73,1,7,43.070889,-77.171715,170.699997,13.19
3638,3304,2216,3720,5050,3250,58,1967,30,54,3328,80,3138,3138,0,85969,3105,84,0.55,0.4,1,7,43.070889,-77.171715,170.699997,13.19
3668,3318,2238,3739,5050,3250,58,1986,29,68,3338,62,3313,3313,0,85971,3118,84,0.39,0.75,1,7,43.070889,-77.171715,170.699997,13.19
3696,3334,2261,3756,5050,3250,58,2009,28,84,3393,50,3516,3516,0,85972,3109,84,0.91,0.8,1,7,43.070889,-77.171715,170.699997,13.19
3726,3350,2290,3780,5050,3250,57,2039,30,100,3384,53,3727,3727,0,85973,3115,84,0.45,1.01,1,7,43.070889,-77.171715,170.699997,13.19
3756,3368,2316,3799,5050,3250,57,2074,30,118,3397,56,3967,3967,0,85974,3105,84,0.51,0.91,1,7,43.070889,-77.171715,170.699997,13.19
3786,3383,2345,3823,5050,3250,57,2113,30,133,3403,56,4179,4179,0,85975,3107,84,0.85,0.92,1,7,43.070889,-77.171715,170.699997,13.19
3816,3397,2362,3848,5050,3250,57,2155,29,147,3410,51,4385,4385,0,85976,3107,84,0.4,0.6,1,7,43.070889,-77.171715,170.699997,13.19
3846,3399,2363,3873,5050,3250,57,2199,30,149,3404,33,4463,4463,0,85978,3106,84,0.06,0.03,1,7,43.070889,-77.171715,170.699997,13.19
3875,3401,2368,3900,5050,3250,58,2244,30,151,3392,10,4544,4544,0,85979,3104,84,0.06,0.18,1,7,43.070889,-77.171715,170.699997,13.19
3904,3398,2377,3926,5050,3250,58,2285,28,148,3384,0,4564,4564,0,85980,3114,84,-0.17,0.32,1,7,43.070889,-77.171715,170.699997,13.19
3935,3383,2377,3953,5050,3250,59,2326,31,133,3329,-19,4456,4456,0,85981,3103,84,-0.42,0,1,7,43.070889,-77.171715,170.699997,13.19
3963,3354,2371,3979,5050,3250,58,2356,29,104,3263,-62,4182,4182,0,85982,3114,84,-1.58,-0.21,1,7,43.070889,-77.171715,170.699997,13.19
3993,3316,2368,4002,5050,3250,58,2375,30,66,3216,-103,3798,3798,0,85983,3105,84,-1.02,-0.1,1,7,43.070938,-77.171761,170.699997,17.38
4023,3267,2361,4024,5050,3250,58,2379,29,17,3145,-141,3275,3275,0,85985,3105,84,-2.57,-0.24,1,7,43.070938,-77.171761,170.699997,17.38
4053,3202,2342,4041,5050,3250,57,2365,30,-48,3061,-176,2557,2557,0,85986,3116,84,-1.66,-0.59,1,7,43.070938,-77.171761,170.699997,17.38
4082,3133,2332,4053,5050,3250,56,2330,30,-117,2981,-220,1769,1769,0,85987,3113,84,-3.43,-0.34,1,7,43.070938,-77.171761,170.699997,17.38
4112,3065,2334,4061,5050,3250,56,2275,30,-185,2924,-230,964,964,0,85988,3125,84,-1.66,0.07,1,7,43.070938,-77.171761,169.5,17.38
4142,2997,2335,4064,5050,3250,55,2202,29,-253,2877,-234,136,136,0,85989,3111,84,-3.26,0.03,1,7,43.070938,-77.171761,169.5,17.38
4170,2936,2335,4065,700,3250,53,2111,29,-314,2840,-227,-639,-639,0,85990,3118,84,-1.44,0,1,7,43.070938,-77.171761,169.5,17.38
4201,2885,2327,4056,3794,3250,53,2111,29,-314,2803,-227,-4239,0,0,85991,3124,84,-2.38,-0.24,1,7,43.070938,-77.171761,169.5,17.38
4230,2837,2294,3994,3759,3250,53,2111,29,-314,2744,-227,-15039,0,0,85992,3124,84,-2.2,-1.19,1,7,43.070938,-77.171761,169.5,17.38
4260,2784,2254,3871,3703,3250,49,2111,29,-314,2658,-227,-24039,0,0,85994,3125,84,-1.17,-1.27,1,7,43.070938,-77.171761,169.5,17.38
4289,2732,2211,3756,3627,3250,48,2111,29,-314,2617,-227,-20439,0,0,85995,3118,84,-2.27,-1.53,1,7,43.070938,-77.171761,169.5,17.38
4320,2683,2158,3652,3529,3250,48,2111,29,-314,2597,-227,-18639,0,0,85996,3118,84,-2.12,-1.83,1,7,43.070938,-77.171761,169.5,17.38
4350,2639,2107,3550,3425,3250,48,2111,29,-314,2582,-227,-18639,0,0,85997,3125,84,-0.95,-1.53,1,7,43.070938,-77.171761,169.5,17.38
4379,2606,2081,3448,3369,3250,49,2111,29,-314,2579,-227,-16839,0,0,85998,3118,84,-1.42,-1.01,1,7,43.070938,-77.171761,169.5,17.38
