version:,4
time engine rpm secondary rpm dc motor pos dc motor target pos target rpm hlfb PI integral term PID dt Error engine raw rpm derivative of error signed motor velocity motor target velocity tire slipping (bool) secondary total rotations raw battery analog battery SOC primary slope secondary slope brake sensor (on/off) current state latitude longitude altitude gps speed (mph)
0,2351,2284,3905,3748,3250,48,3811,60,-327,2236,-155,-23400,0,0,351653,2959,73,-2.18,-1.23,1,7,43.070759,-77.171608,167.600006,18.73
138,2301,2192,3714,3593,3250,48,3811,60,-327,2346,-155,-10800,0,0,351657,2961,73,-0.33,-0.66,1,7,43.070759,-77.171608,167.600006,18.73
199,2289,2096,3555,3401,3250,48,3811,60,-327,2398,-155,-18000,0,0,351659,2967,73,-0.24,-1.55,1,7,43.070759,-77.171608,167.600006,18.73
258,2313,2002,3367,3243,3250,47,3811,60,-327,2381,-155,-19800,0,0,351661,2961,73,0.32,-1.58,1,7,43.070759,-77.171608,167.600006,18.73
317,2347,1886,3199,3109,3250,48,3811,60,-327,2376,-155,-18000,0,0,351662,2970,73,0.67,-2,1,7,43.070759,-77.171608,167.600006,18.73
379,2374,1772,3072,2945,3250,48,3811,60,-327,2372,-155,-14400,0,0,351664,2959,73,0.53,-1.88,1,7,43.070759,-77.171608,167.600006,18.73
438,2388,1688,2907,2797,3250,49,3811,60,-327,2413,-155,-18000,0,0,351666,2964,73,0.19,-1.36,1,7,43.070759,-77.171608,167.600006,18.73
497,2419,1643,2763,2712,3250,48,3811,60,-327,2554,-155,-12600,0,0,351667,2963,73,0.66,-0.8,1,7,43.070759,-77.171608,167.600006,18.73
559,2492,1629,2696,2684,3250,48,3811,60,-327,2745,-155,-5400,0,0,351669,2962,73,1.11,-0.23,1,7,43.070759,-77.171608,167.600006,18.73
618,2630,1808,2688,3004,3250,49,3811,60,-327,3070,-155,1100,0,0,351672,2967,73,2.35,2.93,1,7,43.070759,-77.171608,167.600006,18.73
677,2831,1855,2717,3070,3250,49,3811,60,-327,3374,-155,3740,0,0,351673,2959,73,2.83,0.82,1,7,43.070759,-77.171608,167.600006,18.73
737,3059,1922,2763,5050,3250,54,3697,60,-191,3555,-208,2624,2624,0,351675,2969,73,4.5,1.07,1,7,43.070759,-77.171608,167.600006,18.73
797,3276,2003,2798,5050,3250,55,3712,59,26,3638,383,3944,5122,0,351677,2960,73,3.29,1.44,1,7,43.070759,-77.171608,167.600006,18.73
856,3461,2072,2854,3349,3250,52,3712,60,211,3672,383,6222,0,0,351679,2965,73,3.77,1.17,1,7,43.070759,-77.171608,167.600006,18.73
915,3570,1937,2943,5050,3250,55,3900,59,320,3612,633,9082,10907,0,351681,2944,73,1.64,-2.29,1,7,43.070759,-77.171608,167.600006,18.73
975,3595,1936,3064,5050,3250,58,4107,60,345,3502,146,11496,11496,0,351683,2942,73,0.36,-0.02,1,7,43.070759,-77.171608,167.600006,18.73
1036,3569,1920,3198,5050,3250,58,4301,61,319,3423,21,11285,11285,0,351685,2944,73,-0.49,-0.26,1,7,43.070816,-77.171654,167.600006,14.94
1095,3534,1907,3319,5050,3250,59,4468,59,284,3462,-49,8868,8868,0,351687,2942,73,-0.67,-0.22,1,7,43.070816,-77.171654,167.600006,14.94
1207,3488,1894,3517,5050,3250,59,4734,112,238,3445,-33,8718,8718,0,351690,2930,73,-0.38,-0.11,1,7,43.070816,-77.171654,171.800003,14.94
1266,3441,1906,3617,5050,3250,60,4846,59,191,3373,-77,8357,8357,0,351692,2943,73,-0.88,0.21,1,7,43.070816,-77.171654,171.800003,14.94
1325,3394,1923,3705,5050,3250,61,4930,59,144,3271,-81,7960,7960,0,351694,2939,73,-0.85,0.29,1,7,43.070816,-77.171654,171.800003,14.94
1386,3349,1954,3804,5050,3250,63,4990,61,99,3194,-75,7553,7553,0,351696,2956,73,-0.6,0.51,1,7,43.070816,-77.171654,171.800003,14.94
1447,3293,1979,3889,5050,3250,60,5000,61,43,3185,-78,6963,6963,0,351698,2918,73,-0.99,0.4,1,7,43.070816,-77.171654,171.800003,14.94
1506,3220,1982,3966,5050,3250,61,4983,59,-30,3081,-101,6154,6154,0,351700,2932,73,-1.25,0.05,1,7,43.070816,-77.171654,171.800003,14.94
1567,3141,1976,4034,5050,3250,62,4917,61,-109,2975,-121,5218,5218,0,351702,2926,73,-1.31,-0.1,1,7,43.070816,-77.171654,171.800003,14.94
1626,3045,1959,4088,5050,3250,62,4797,59,-205,2792,-142,4027,4027,0,351704,2928,73,-1.49,-0.28,1,7,43.070816,-77.171654,171.800003,14.94
1686,2948,1941,4125,5050,3250,63,4616,60,-302,2708,-160,2746,2746,0,351706,2944,73,-2.19,-0.3,1,7,43.070816,-77.171654,171.800003,14.94
1748,2857,1946,4137,3180,3250,61,4616,60,-302,2731,-160,-5400,0,0,351708,2969,73,-1.38,0.08,1,7,43.070816,-77.171654,171.800003,14.94
1807,2816,2015,3937,3257,3250,56,4616,60,-302,2875,-160,-27000,0,0,351711,2971,73,-0.65,1.13,1,7,43.070816,-77.171654,171.800003,14.94
1866,2818,2064,3574,3332,3250,47,4616,60,-302,2986,-160,-30600,0,0,351713,2967,73,0.03,0.84,1,7,43.070816,-77.171654,171.800003,14.94
1929,2828,2063,3346,3330,3250,48,4616,60,-302,2840,-160,-7200,0,0,351714,2961,73,0.16,-0.02,1,7,43.070816,-77.171654,171.800003,14.94
1988,2854,2045,3308,3290,3250,49,4616,60,-302,2842,-160,-7200,0,0,351716,2965,73,0.41,-0.31,1,7,43.070866,-77.171715,171.800003,15.26
2047,2895,1995,3266,3235,3250,48,4616,60,-302,2933,-160,-9000,0,0,351718,2959,73,0.67,-0.81,1,7,43.070866,-77.171715,171.800003,15.26
2108,2937,1918,3238,5050,3250,48,4426,61,-313,3084,-188,880,2380,0,351720,2971,73,0.72,-1.33,1,7,43.070866,-77.171715,171.800003,15.26
2166,2975,1872,3260,5050,3250,48,4267,58,-275,3176,68,2584,2584,0,351722,2949,73,0.67,-0.75,1,7,43.070866,-77.171715,173.100006,15.26
2277,3048,1897,3320,5050,3250,56,4043,111,-202,3209,43,3079,3079,0,351726,2955,73,0.65,0.22,1,7,43.070866,-77.171715,173.100006,15.26
2336,3144,1945,3359,5050,3250,56,3980,60,-106,3322,131,4032,4032,0,351728,2953,73,1.77,0.82,1,7,43.070866,-77.171715,173.100006,15.26
2395,3230,1993,3405,5050,3250,56,3969,58,-20,3359,160,4944,4944,0,351730,2951,73,1.61,0.83,1,7,43.070866,-77.171715,173.100006,15.26
2454,3292,2018,3466,5050,3250,55,3993,59,42,3395,135,5642,5642,0,351732,2951,73,0.88,0.43,1,7,43.070866,-77.171715,173.100006,15.26
2513,3339,2050,3534,5050,3250,56,4045,59,89,3413,98,6217,6217,0,351734,2942,73,0.89,0.53,1,7,43.070866,-77.171715,173.100006,15.26
2572,3386,2094,3610,5050,3250,57,4126,60,136,3444,78,6828,6828,0,351736,2960,73,0.9,0.75,1,7,43.070866,-77.171715,173.100006,15.26
2631,3421,2139,3685,5050,3250,56,4225,58,171,3498,75,7334,7334,0,351738,2948,73,0.51,0.76,1,7,43.070866,-77.171715,173.100006,15.26
2690,3454,2181,3773,5050,3250,57,4345,59,204,3520,57,7846,7846,0,351741,2947,73,0.65,0.71,1,7,43.070866,-77.171715,173.100006,15.26
2754,3465,2224,3874,5050,3250,59,4484,65,215,3454,43,8146,8146,0,351743,2952,73,0.16,0.66,1,7,43.070866,-77.171715,173.100006,15.26
2813,3472,2280,3971,5050,3250,58,4612,58,222,3444,17,8387,8387,0,351745,2960,73,0.13,0.99,1,7,43.070866,-77.171715,173.100006,15.26
2872,3476,2340,4070,5050,3250,57,4745,59,226,3468,11,8603,8603,0,351748,2938,73,0.06,0.99,1,7,43.070866,-77.171715,173.100006,15.26
2931,3468,2386,4172,5050,3250,56,4875,60,218,3458,1,8686,8686,0,351750,2949,73,-0.15,0.77,1,7,43.070866,-77.171715,173.100006,15.26
2990,3446,2430,4264,5050,3250,58,4988,58,196,3408,-20,8596,8596,0,351753,2933,73,-0.31,0.77,1,7,43.070915,-77.171776,173.100006,19.15
3049,3409,2456,4363,5050,3250,59,5000,59,159,3270,-44,8213,8213,0,351755,2950,73,-0.67,0.44,1,7,43.070915,-77.171776,173.100006,19.15
3110,3315,2456,4455,5050,3250,59,5000,61,65,2972,-85,7200,7200,0,351758,2954,73,-1.55,0,1,7,43.070915,-77.171776,173.100006,19.15
3168,3182,2444,4532,5050,3250,56,4960,59,-68,2806,-174,5716,5716,0,351760,2965,73,-3.11,-0.2,1,7,43.070915,-77.171776,172.399994,19.15
3227,3020,2409,4589,5050,3250,56,4827,58,-230,2644,-241,3797,3797,0,351762,2960,73,-2.38,-0.6,1,7,43.070915,-77.171776,172.399994,19.15
3339,2820,2351,4650,3819,3250,55,4827,58,-230,2409,-241,-3600,0,0,351766,2964,73,-2.01,-0.5,1,7,43.070915,-77.171776,172.399994,19.15
3398,2603,2278,4471,3741,3250,55,4827,58,-230,2187,-241,-25200,0,0,351768,2963,73,-2.64,-1.25,1,7,43.070915,-77.171776,172.399994,19.15
3456,2421,2185,4086,3580,3250,46,4827,58,-230,2063,-241,-43200,0,0,351770,2964,73,-6.26,-1.6,1,7,43.070915,-77.171776,172.399994,19.15
3517,2275,2077,3652,3360,3250,47,4827,58,-230,2073,-241,-32400,0,0,351772,2951,73,-1.68,-1.79,1,7,43.070915,-77.171776,172.399994,19.15
3576,2198,1973,3374,3211,3250,48,4827,58,-230,2260,-241,-25200,0,0,351774,2970,73,-1.45,-1.79,1,7,43.070915,-77.171776,172.399994,19.15
3634,2210,1892,3174,3116,3250,48,4827,58,-230,2470,-241,-14400,0,0,351775,2966,73,0.25,-1.39,1,7,43.070915,-77.171776,172.399994,19.15
3695,2315,1844,3089,3056,3250,48,4827,58,-230,2712,-241,-10800,0,0,351777,2965,73,1.58,-0.77,1,7,43.070915,-77.171776,172.399994,19.15
3754,2491,1813,3028,3012,3250,49,4827,58,-230,2942,-241,-7200,0,0,351779,2967,73,2.88,-0.57,1,7,43.070915,-77.171776,172.399994,19.15
3812,2690,1793,2992,2980,3250,48,4827,58,-230,3066,-241,-5400,0,0,351781,2967,73,3.39,-0.34,1,7,43.070915,-77.171776,172.399994,19.15
3872,2874,1796,2984,2985,3250,47,4827,58,-230,3184,-241,1100,0,0,351782,2962,73,3.25,0.05,1,7,43.070915,-77.171776,172.399994,19.15
3931,3037,1804,2987,5050,3250,48,4702,59,-213,3284,-384,1100,3712,0,351784,2967,73,2.97,0.14,1,7,43.070915,-77.171776,172.399994,19.15
3989,3165,1810,3016,5050,3250,52,4653,58,-85,3353,265,3740,5095,0,351786,2956,73,1.79,0.1,1,7,43.070976,-77.171806,172.399994,15.64
4047,3260,1832,3076,5050,3250,56,4658,59,10,3416,203,6165,6165,0,351788,2953,73,1.8,0.4,1,7,43.070976,-77.171806,172.399994,15.64
4107,3334,1856,3151,5050,3250,57,4707,59,84,3435,152,7028,7028,0,351790,2957,73,1.06,0.4,1,7,43.070976,-77.171806,172.399994,15.64
4165,3379,1864,3229,5050,3250,58,4783,58,129,3408,111,7607,7607,0,351792,2938,73,0.85,0.13,1,7,43.070976,-77.171806,171.899994,15.64
4225,3393,1863,3319,5050,3250,58,4867,59,143,3354,64,7868,7868,0,351793,2944,73,0.26,-0.02,1,7,43.070976,-77.171806,171.899994,15.64
4284,3381,1859,3411,5050,3250,60,4945,60,131,3292,11,7839,7839,0,351795,2949,73,-0.22,-0.06,1,7,43.070976,-77.171806,171.899994,15.64
4399,3352,1870,3586,5050,3250,59,5000,115,102,3271,-13,7599,7599,0,351799,2956,73,-0.23,0.09,1,7,43.070976,-77.171806,171.899994,15.64
4459,3327,1901,3674,5050,3250,58,5000,60,77,3314,-46,7329,7329,0,351801,2947,73,-0.46,0.53,1,7,43.070976,-77.171806,171.899994,15.64
4519,3301,1928,3758,5050,3250,59,5000,59,51,3275,-42,7049,7049,0,351803,2939,73,-0.47,0.45,1,7,43.070976,-77.171806,171.899994,15.64
4578,3265,1957,3839,5050,3250,61,5000,59,15,3176,-49,6661,6661,0,351805,2928,73,-0.64,0.51,1,7,43.070976,-77.171806,171.899994,15.64
4636,3223,1981,3908,5050,3250,61,4985,58,-27,3082,-65,6190,6190,0,351807,2948,73,-0.72,0.41,1,7,43.070976,-77.171806,171.899994,15.64
4696,3180,2002,3978,5050,3250,60,4943,60,-70,3053,-68,5671,5671,0,351809,2939,73,-0.73,0.34,1,7,43.070976,-77.171806,171.899994,15.64
4756,3129,2008,4042,5050,3250,60,4871,60,-121,3061,-75,5028,5028,0,351811,2950,73,-0.87,0.1,1,7,43.070976,-77.171806,171.899994,15.64
4814,3078,2023,4097,5050,3250,58,4772,58,-172,3019,-89,4350,4350,0,351813,2940,73,-0.86,0.26,1,7,43.070976,-77.171806,171.899994,15.64
4874,3024,2016,4145,5050,3250,60,4637,60,-226,2908,-85,3593,3593,0,351815,2936,73,-0.87,-0.11,1,7,43.070976,-77.171806,171.899994,15.64
4932,2952,2002,4182,5050,3250,61,4462,59,-298,2720,-98,2589,2589,0,351817,2941,73,-1.09,-0.23,1,7,43.070976,-77.171806,171.899994,15.64
4991,2871,1979,4188,3217,3250,60,4462,59,-298,2649,-98,-5400,0,0,351819,2959,73,-1.79,-0.39,1,7,43.071033,-77.171799,171.899994,13.4
5051,2786,1955,3988,3190,3250,59,4462,59,-298,2638,-98,-27000,0,0,351821,2963,73,-1.25,-0.42,1,7,43.071033,-77.171799,171.899994,13.4
5111,2704,1929,3555,3160,3250,46,4462,59,-298,2608,-98,-37800,0,0,351822,2965,73,-1.19,-0.42,1,7,43.071033,-77.171799,171.899994,13.4
5169,2651,1914,3240,3143,3250,48,4462,59,-298,2640,-98,-18000,0,0,351824,2969,73,-1.17,-0.27,1,7,43.071033,-77.171799,171.300003,13.4
5229,2649,1875,3121,3095,3250,49,4462,59,-298,2712,-98,-9000,0,0,351826,2959,73,-0.03,-0.62,1,7,43.071033,-77.171799,171.300003,13.4
5287,2672,1815,3063,3015,3250,49,4462,59,-298,2764,-98,-10800,0,0,351827,2959,73,0.35,-1.08,1,7,43.071033,-77.171799,171.300003,13.4
5347,2720,1771,2989,2943,3250,48,4462,59,-298,2880,-98,-10800,0,0,351829,2963,73,1.15,-0.73,1,7,43.071033,-77.171799,171.300003,13.4
5467,2821,1735,2919,2882,3250,48,4462,59,-298,3110,-98,-9000,0,0,351833,2966,73,0.75,-0.3,1,7,43.071033,-77.171799,171.300003,13.4
5527,2931,1698,2884,5050,3250,47,4271,60,-319,3191,-265,880,1907,0,351834,2966,73,1.95,-0.59,1,7,43.071033,-77.171799,171.300003,13.4
5585,3019,1687,2905,5050,3250,50,4135,59,-231,3154,177,2736,2736,0,351836,2955,73,1.54,-0.18,1,7,43.071033,-77.171799,171.300003,13.4
5645,3084,1682,2940,5050,3250,57,4038,59,-166,3085,140,3353,3353,0,351838,2947,73,1.11,-0.09,1,7,43.071033,-77.171799,171.300003,13.4
5703,3134,1667,2981,5050,3250,57,3970,59,-116,3130,103,3847,3847,0,351839,2963,73,0.87,-0.26,1,7,43.071033,-77.171799,171.300003,13.4
5762,3149,1659,3027,5050,3250,57,3912,58,-101,3186,70,3955,3955,0,351841,2955,73,0.27,-0.13,1,7,43.071033,-77.171799,171.300003,13.4
5820,3145,1657,3072,5050,3250,57,3851,59,-105,3173,16,3846,3846,0,351843,2951,73,-0.07,-0.03,1,7,43.071033,-77.171799,171.300003,13.4
5880,3144,1679,3113,5050,3250,57,3788,60,-106,3150,-5,3768,3768,0,351844,2956,73,-0.02,0.36,1,7,43.071033,-77.171799,171.300003,13.4
5939,3166,1710,3158,5050,3250,57,3740,58,-84,3194,8,3957,3957,0,351846,2953,73,0.29,0.56,1,7,43.071033,-77.171799,171.300003,13.4
5997,3172,1726,3205,5050,3250,57,3695,58,-78,3161,31,3963,3963,0,351848,2957,73,0.11,0.27,1,7,43.071053,-77.171745,171.300003,11.63
6060,3154,1722,3250,5050,3250,58,3634,64,-96,3093,0,3690,3690,0,351849,2950,73,-0.31,-0.06,1,7,43.071053,-77.171745,171.300003,11.63
6119,3131,1732,3292,5050,3250,57,3565,58,-119,3058,-34,3352,3352,0,351851,2948,73,-0.39,0.16,1,7,43.071053,-77.171745,170.899994,11.63
6177,3109,1742,3329,5050,3250,58,3484,58,-141,3039,-37,3010,3010,0,351853,2959,73,-0.37,0.17,1,7,43.071053,-77.171745,170.899994,11.63
6237,3099,1780,3363,5050,3250,57,3394,60,-151,3145,-33,2785,2785,0,351855,2954,73,-0.17,0.66,1,7,43.071053,-77.171745,170.899994,11.63
6295,3115,1824,3394,5050,3250,56,3316,58,-135,3241,-5,2856,2856,0,351857,2952,73,0.29,0.77,1,7,43.071053,-77.171745,170.899994,11.63
6354,3141,1866,3428,5050,3250,56,3252,59,-109,3223,32,3053,3053,0,351859,2957,73,0.47,0.71,1,7,43.071053,-77.171745,170.899994,11.63
6415,3165,1904,3465,5050,3250,56,3201,61,-85,3178,40,3245,3245,0,351861,2954,73,0.32,0.61,1,7,43.071053,-77.171745,170.899994,11.63
6473,3193,1931,3504,5050,3250,56,3168,58,-57,3180,43,3504,3504,0,351863,2960,73,0.49,0.46,1,7,43.071053,-77.171745,170.899994,11.63
6593,3209,1947,3587,5050,3250,57,3119,120,-41,3224,20,3613,3613,0,351867,2954,73,0.14,0.14,1,7,43.071053,-77.171745,170.899994,11.63
6652,3217,1967,3629,5050,3250,56,3100,60,-33,3280,23,3675,3675,0,351869,2961,73,0.15,0.32,1,7,43.071053,-77.171745,170.899994,11.63
6711,3230,2022,3669,5050,3250,57,3089,58,-20,3289,15,3800,3800,0,351871,2948,73,0.18,0.95,1,7,43.071053,-77.171745,170.899994,11.63
6769,3256,2067,3715,5050,3250,56,3092,59,6,3308,28,4083,4083,0,351873,2959,73,0.48,0.8,1,7,43.071053,-77.171745,170.899994,11.63
6829,3294,2148,3765,5050,3250,57,3118,60,44,3370,48,4527,4527,0,351875,2959,73,0.71,1.32,1,7,43.071053,-77.171745,170.899994,11.63
6888,3339,2219,3820,5050,3250,56,3169,58,89,3451,67,5078,5078,0,351878,2960,73,0.65,1.19,1,7,43.071053,-77.171745,170.899994,11.63
6948,3376,2280,3882,5050,3250,55,3244,60,126,3464,73,5574,5574,0,351880,2945,73,0.71,1.01,1,7,43.071053,-77.171745,170.899994,11.63
7008,3393,2295,3949,5050,3250,57,3329,60,143,3373,53,5868,5868,0,351882,2956,73,0.32,0.25,1,7,43.071041,-77.171661,170.899994,15.71
7066,3391,2315,4012,5050,3250,58,3410,58,141,3297,18,5952,5952,0,351884,2936,73,-0.03,0.35,1,7,43.071041,-77.171661,170.899994,15.71
7125,3352,2297,4080,5050,3250,59,3470,59,102,3177,-16,5610,5610,0,351887,2959,73,-0.69,-0.3,1,7,43.071041,-77.171661,170.5,15.71
7183,3316,2323,4144,5050,3250,57,3508,59,66,3272,-64,5271,5271,0,351889,2963,73,-0.65,0.46,1,7,43.071041,-77.171661,170.5,15.71
7243,3291,2352,4205,5050,3250,56,3532,60,41,3338,-56,5032,5032,0,351892,2952,73,-0.46,0.49,1,7,43.071041,-77.171661,170.5,15.71
7302,3273,2379,4263,5050,3250,56,3545,58,23,3281,-39,4855,4855,0,351894,2953,73,-0.33,0.45,1,7,43.071041,-77.171661,170.5,15.71
7362,3236,2382,4318,5050,3250,58,3537,60,-14,3113,-38,4448,4448,0,351896,2955,73,-0.64,0.05,1,7,43.071041,-77.171661,170.5,15.71
7422,3209,2423,4368,5050,3250,60,3513,60,-41,3041,-56,4125,4125,0,351899,2963,73,-0.46,0.7,1,7,43.071041,-77.171661,170.5,15.71
7480,3176,2430,4411,5050,3250,56,3471,58,-74,3110,-50,3715,3715,0,351901,2952,73,-0.57,0.12,1,7,43.071041,-77.171661,170.5,15.71
7539,3120,2394,4451,5050,3250,57,3395,59,-130,3059,-64,3012,3012,0,351903,2957,73,-0.95,-0.59,1,7,43.071041,-77.171661,170.5,15.71
7657,3044,2390,4516,5050,3250,59,3150,119,-206,2897,-51,1875,1875,0,351908,2951,73,-0.61,-0.03,1,7,43.071041,-77.171661,170.5,15.71
7719,3007,2443,4535,5050,3250,58,3002,61,-243,2929,-109,1284,1284,0,351911,2957,73,-0.6,0.85,1,7,43.071041,-77.171661,170.5,15.71
7777,2987,2455,4548,5050,3250,57,2847,59,-263,2942,-55,867,867,0,351913,2956,73,-0.33,0.21,1,7,43.071041,-77.171661,170.5,15.71
7837,2943,2432,4555,5050,3250,56,2663,60,-307,2892,-43,153,153,0,351916,2959,73,-0.71,-0.37,1,7,43.071041,-77.171661,170.5,15.71
7896,2904,2452,4553,700,3250,56,2463,58,-346,2861,-72,-527,-527,0,351918,2959,73,-0.62,0.34,1,7,43.071041,-77.171661,170.5,15.71
7955,2892,2464,4521,3931,3250,56,2463,58,-346,2839,-72,-9527,0,0,351920,2960,73,-0.28,0.21,1,7,43.071041,-77.171661,170.5,15.71
8015,2877,2464,4272,3931,3250,52,2463,58,-346,2851,-72,-31127,0,0,351923,2961,73,-0.24,0,1,7,43.070999,-77.171585,170.5,18.88
8073,2876,2477,4002,3943,3250,47,2463,58,-346,2941,-72,-13127,0,0,351925,2967,73,-0.02,0.22,1,7,43.070999,-77.171585,170.5,18.88
8132,2913,2497,3962,3961,3250,49,2463,58,-337,3075,-72,0,0,0,351928,2961,73,0.63,0.34,1,7,43.070999,-77.171585,169.399994,18.88
8192,2993,2512,3963,5050,3250,49,2309,60,-257,3262,-1,232,232,0,351930,2960,73,1.09,0.25,1,7,43.070999,-77.171585,169.399994,18.88
8251,3101,2531,3968,5050,3250,51,2222,59,-149,3376,147,1283,1283,0,351933,2969,73,2.03,0.32,1,7,43.070999,-77.171585,169.399994,18.88
8310,3216,2537,3987,5050,3250,54,2202,59,-34,3429,186,2383,2496,0,351935,2968,73,2.19,0.1,1,7,43.070999,-77.171585,169.399994,18.88
8370,3321,2539,4019,5050,3250,55,2244,60,71,3467,188,3596,3682,0,351938,2954,73,1.52,0.03,1,7,43.070999,-77.171585,169.399994,18.88
8430,3405,2551,4065,5050,3250,55,2337,60,155,3495,165,4708,4708,0,351941,2955,73,1.63,0.21,1,7,43.070999,-77.171585,169.399994,18.88
8488,3456,2583,4123,5050,3250,56,2458,59,206,3517,128,5415,5415,0,351943,2957,73,0.75,0.54,1,7,43.070999,-77.171585,169.399994,18.88
8547,3485,2605,4189,5050,3250,56,2594,58,235,3521,79,5904,5904,0,351946,2957,73,0.57,0.37,1,7,43.070999,-77.171585,169.399994,18.88
8607,3490,2628,4259,5050,3250,56,2738,60,240,3453,36,6145,6145,0,351948,2951,73,0.07,0.39,1,7,43.070999,-77.171585,169.399994,18.88
8665,3478,2658,4325,5050,3250,56,2872,59,228,3404,1,6190,6190,0,351951,2962,73,-0.23,0.52,1,7,43.070999,-77.171585,169.399994,18.88
8786,3451,2678,4477,5050,3250,57,3113,120,201,3360,-13,6212,6212,0,351957,2958,73,-0.22,0.16,1,7,43.070999,-77.171585,169.399994,18.88
8846,3414,2704,4548,5050,3250,58,3209,59,164,3335,-49,5938,5938,0,351959,2951,73,-0.69,0.44,1,7,43.070999,-77.171585,169.399994,18.88
8906,3380,2744,4616,5050,3250,58,3287,60,130,3349,-60,5674,5674,0,351962,2965,73,-0.63,0.66,1,7,43.070999,-77.171585,169.399994,18.88
8965,3355,2780,4676,5050,3250,57,3348,59,105,3327,-54,5483,5483,0,351965,2945,73,-0.35,0.62,1,7,43.070999,-77.171585,169.399994,18.88
9025,3327,2797,4739,5050,3250,57,3394,60,77,3267,-43,5241,5241,0,351968,2958,73,-0.51,0.28,1,7,43.070946,-77.171494,169.399994,21.63
9083,3294,2823,4799,5050,3250,57,3419,59,44,3196,-49,4918,4918,0,351971,2956,73,-0.59,0.45,1,7,43.070946,-77.171494,169.399994,21.63
9142,3268,2857,4855,5050,3250,57,3429,58,18,3201,-53,4650,4650,0,351974,2947,73,-0.46,0.58,1,7,43.070946,-77.171494,168.800003,21.63
