version:,4
time engine rpm secondary rpm dc motor pos dc motor target pos target rpm hlfb PI integral term PID dt Error engine raw rpm derivative of error signed motor velocity motor target velocity tire slipping (bool) secondary total rotations raw battery analog battery SOC primary slope secondary slope brake sensor (on/off) current state latitude longitude altitude gps speed (mph)
-1.86264514923096e-09,2173,1392,2263,2187,3250,48,4787,41,-295,2123,-234,-14400,0,0,217610,3047,79,-0.41,-1.02,1,7,43.070786,-77.171608,166.899994,18.61
44.9999999981374,2152,1347,2164,2078,3250,48,4787,41,-295,2117,-234,-14400,0,0,217611,3044,79,-0.74,-1.08,1,7,43.070786,-77.171608,166.899994,18.61
90.9999999981374,2130,1311,2050,1985,3250,49,4787,41,-295,2088,-234,-16200,0,0,217612,3048,79,-0.38,-0.76,1,7,43.070786,-77.171608,168,18.61
135.999999998137,2110,1289,1955,1926,3250,48,4787,41,-295,2072,-234,-10800,0,0,217613,3051,79,-0.69,-0.47,1,7,43.070786,-77.171608,168,18.61
181.999999998137,2101,1285,1916,1915,3250,48,4787,41,-295,2109,-234,-1800,0,0,217614,3047,79,-0.16,-0.09,1,7,43.070786,-77.171608,168,18.61
227.999999998137,2158,1318,1917,2004,3250,48,4787,41,-295,2407,-234,880,0,0,217615,3057,79,1.14,0.72,1,7,43.070786,-77.171608,168,18.61
272.999999998137,2264,1591,1934,2607,3250,49,4787,41,-295,2646,-234,2860,0,1,217617,3043,79,2.34,5.95,1,7,43.070786,-77.171608,168,18.61
316.999999998137,2419,1628,1969,2682,3250,52,4787,41,-295,2862,-234,4840,0,1,217618,3054,79,3.7,0.9,1,7,43.070786,-77.171608,168,18.61
362.999999998137,2620,1698,2021,2815,3250,51,4787,41,-295,3078,-234,6820,0,1,217619,3059,79,3.44,1.52,1,7,43.070786,-77.171608,168,18.61
407.999999998137,2855,1756,2091,2918,3250,51,4787,41,-295,3284,-234,8800,0,1,217620,3055,79,6.43,1.25,1,7,43.070786,-77.171608,168,18.61
453.999999998137,3054,1779,2166,5050,3250,52,4697,46,-196,3404,-267,4720,3867,1,217622,3047,79,3.76,0.48,1,7,43.070786,-77.171608,168,18.61
499.999999998137,3231,1586,2206,5050,3250,53,4689,46,-19,3531,419,4747,5878,0,217623,3047,79,3.47,-4.24,1,7,43.070786,-77.171608,168,18.61
545.999999998137,3374,1633,2257,5050,3250,52,4744,45,124,3574,375,6727,7583,0,217624,3042,79,4.26,1.06,1,7,43.070786,-77.171608,168,18.61
590.999999998137,3476,1643,2325,5050,3250,52,4847,46,226,3587,289,8463,8883,0,217626,3047,79,2.03,0.22,1,7,43.070786,-77.171608,168,18.61
636.999999998137,3533,1653,2405,5050,3250,54,4977,46,283,3573,197,9703,9703,0,217627,3038,79,1.13,0.2,1,7,43.070786,-77.171608,168,18.61
680.999999998137,3565,1670,2492,5050,3250,55,5000,44,315,3560,113,10583,12623,0,217628,3037,79,0.95,0.42,1,7,43.070786,-77.171608,168,18.61
725.999999998137,3565,1667,2595,5050,3250,56,5000,45,315,3533,53,12563,12623,0,217629,3022,79,0,-0.07,1,7,43.070786,-77.171608,168,18.61
771.999999998137,3541,1654,2696,5050,3250,58,5000,46,291,3454,-13,9825,9825,0,217630,3028,79,-0.46,-0.28,1,7,43.070786,-77.171608,168,18.61
816.999999998137,3504,1643,2780,5050,3250,58,5000,44,254,3401,-61,9402,9402,0,217632,3039,79,-1.05,-0.24,1,7,43.070786,-77.171608,168,18.61
861.999999998137,3471,1643,2862,5050,3250,59,5000,46,221,3411,-78,9025,9025,0,217633,3041,79,-0.63,0,1,7,43.070786,-77.171608,168,18.61
907.999999998137,3446,1657,2940,5050,3250,59,5000,45,196,3432,-68,8739,8739,0,217634,3022,79,-0.72,0.32,1,7,43.070786,-77.171608,168,18.61
953.999999998137,3421,1675,3016,5050,3250,61,5000,47,171,3411,-53,8422,8422,0,217636,3028,79,-0.47,0.38,1,7,43.070786,-77.171608,168,18.61
999.999999998137,3406,1695,3097,5050,3250,60,5000,46,156,3379,-50,8216,8216,0,217637,3019,79,-0.42,0.42,1,7,43.070831,-77.171646,168,12.84
1044.99999999814,3395,1731,3169,5050,3250,60,5000,45,145,3346,-31,8062,8062,0,217638,3027,79,-0.2,0.79,1,7,43.070831,-77.171646,168,12.84
1091.99999999814,3383,1756,3239,5050,3250,60,5000,47,133,3350,-23,7933,7933,0,217640,3029,79,-0.22,0.54,1,7,43.070831,-77.171646,169.100006,12.84
1135.99999999814,3355,1764,3308,5050,3250,60,5000,44,105,3290,-36,7631,7631,0,217641,3029,79,-0.77,0.19,1,7,43.070831,-77.171646,169.100006,12.84
1181.99999999814,3316,1772,3373,5050,3250,61,5000,46,66,3218,-65,7211,7211,0,217642,3035,79,-1.05,0.17,1,7,43.070831,-77.171646,169.100006,12.84
1227.99999999814,3270,1784,3435,5050,3250,61,5000,46,20,3148,-89,6715,6715,0,217644,3039,79,-0.8,0.26,1,7,43.070831,-77.171646,169.100006,12.84
1273.99999999814,3232,1800,3493,5050,3250,60,4992,46,-18,3156,-95,6296,6296,0,217645,3026,79,-1,0.37,1,7,43.070831,-77.171646,169.100006,12.84
1318.99999999814,3191,1812,3547,5050,3250,60,4966,45,-59,3147,-86,5820,5820,0,217647,3029,79,-0.72,0.25,1,7,43.070831,-77.171646,169.100006,12.84
1365.99999999814,3150,1824,3602,5050,3250,60,4920,46,-100,3084,-89,5319,5319,0,217648,3027,79,-1.05,0.27,1,7,43.070831,-77.171646,169.100006,12.84
1410.99999999814,3111,1837,3646,5050,3250,61,4857,46,-139,3023,-89,4816,4816,0,217649,3025,79,-0.98,0.29,1,7,43.070831,-77.171646,169.100006,12.84
1455.99999999814,3070,1836,3687,5050,3250,61,4776,45,-180,2940,-86,4269,4269,0,217651,3016,79,-0.67,-0.02,1,7,43.070831,-77.171646,169.100006,12.84
1502.99999999814,3010,1815,3721,5050,3250,61,4664,47,-240,2857,-97,3477,3477,0,217652,3031,79,-1.43,-0.45,1,7,43.070831,-77.171646,169.100006,12.84
1547.99999999814,2934,1790,3748,5050,3250,63,4522,45,-316,2766,-142,2473,2473,0,217653,3027,79,-1.75,-0.58,1,7,43.070831,-77.171646,169.100006,12.84
1591.99999999814,2866,1782,3755,2962,3250,61,4522,45,-316,2748,-142,-3600,0,0,217655,3042,79,-1.56,-0.17,1,7,43.070831,-77.171646,169.100006,12.84
1638.99999999814,2822,1804,3644,2998,3250,60,4522,45,-316,2801,-142,-19800,0,0,217656,3053,79,-1.03,0.47,1,7,43.070831,-77.171646,169.100006,12.84
1683.99999999814,2815,1862,3393,3079,3250,47,4522,45,-316,2906,-142,-34200,0,0,217658,3046,79,-0.17,1.23,1,7,43.070831,-77.171646,169.100006,12.84
1729.99999999814,2849,1906,3172,3133,3250,48,4522,45,-316,3024,-142,-18000,0,0,217659,3047,79,0.57,0.98,1,7,43.070831,-77.171646,169.100006,12.84
1775.99999999814,2899,1918,3093,3147,3250,49,4522,45,-316,3018,-142,0,0,0,217661,3057,79,1.26,0.26,1,7,43.070831,-77.171646,169.100006,12.84
1820.99999999814,2949,1901,3102,5050,3250,49,4387,45,-301,2997,-175,1980,2421,0,217662,3055,79,1.25,-0.39,1,7,43.070831,-77.171646,169.100006,12.84
1866.99999999814,2988,1853,3124,5050,3250,52,4270,45,-262,2997,104,2710,2710,0,217663,3036,79,0.97,-1.08,1,7,43.070831,-77.171646,169.100006,12.84
1912.99999999814,3010,1781,3149,5050,3250,57,4158,47,-240,3018,74,2819,2819,0,217665,3050,79,0.37,-1.5,1,7,43.070831,-77.171646,169.100006,12.84
1956.99999999814,3026,1751,3173,5050,3250,57,4060,44,-224,3102,45,2864,2864,0,217666,3052,79,0.41,-0.67,1,7,43.070831,-77.171646,169.100006,12.84
2001.99999999814,3061,1780,3200,5050,3250,56,3975,45,-189,3194,46,3131,3131,0,217667,3043,79,0.93,0.68,1,7,43.070873,-77.171707,169.100006,14.52
2047.99999999814,3120,1829,3229,5050,3250,56,3916,46,-130,3289,89,3689,3689,0,217669,3040,79,1.08,1.07,1,7,43.070873,-77.171707,169.100006,14.52
2093.99999999814,3186,1880,3263,5050,3250,56,3887,46,-64,3330,132,4349,4364,0,217670,3035,79,1.22,1.1,1,7,43.070873,-77.171707,170.300003,14.52
2138.99999999814,3251,1930,3302,5050,3250,58,3887,45,1,3343,144,5024,5063,0,217672,3031,79,1.81,1.09,1,7,43.070873,-77.171707,170.300003,14.52
2184.99999999814,3304,1962,3354,5050,3250,58,3911,46,54,3364,136,5665,5665,0,217674,3036,79,0.99,0.71,1,7,43.070873,-77.171707,170.300003,14.52
2229.99999999814,3344,1986,3405,5050,3250,57,3953,45,94,3398,111,6151,6151,0,217675,3032,79,1.13,0.51,1,7,43.070873,-77.171707,170.300003,14.52
2275.99999999814,3375,2017,3460,5050,3250,57,4009,45,125,3440,82,6558,6558,0,217677,3033,79,0.59,0.67,1,7,43.070873,-77.171707,170.300003,14.52
2320.99999999814,3398,2053,3519,5050,3250,57,4077,46,148,3448,63,6894,6894,0,217678,3033,79,0.66,0.78,1,7,43.070873,-77.171707,170.300003,14.52
2366.99999999814,3414,2076,3581,5050,3250,58,4152,46,164,3421,45,7164,7164,0,217680,3029,79,0.3,0.53,1,7,43.070873,-77.171707,170.300003,14.52
2412.99999999814,3415,2094,3644,5050,3250,60,4227,46,165,3372,26,7273,7273,0,217682,3027,79,0.02,0.39,1,7,43.070873,-77.171707,170.300003,14.52
2460.99999999814,3410,2118,3715,5050,3250,59,4303,48,160,3371,0,7317,7317,0,217683,3017,79,-0.14,0.5,1,7,43.070873,-77.171707,170.300003,14.52
2507.99999999814,3401,2141,3780,5050,3250,60,4373,47,151,3396,-12,7311,7311,0,217685,3029,79,-0.17,0.49,1,7,43.070873,-77.171707,170.300003,14.52
2552.99999999814,3389,2165,3844,5050,3250,59,4435,45,139,3386,-22,7263,7263,0,217687,3036,79,-0.23,0.51,1,7,43.070873,-77.171707,170.300003,14.52
2596.99999999814,3383,2218,3908,5050,3250,59,4493,44,133,3394,-25,7273,7273,0,217688,3037,79,-0.17,1.27,1,7,43.070873,-77.171707,170.300003,14.52
2642.99999999814,3384,2265,3972,5050,3250,60,4554,46,134,3377,-6,7364,7364,0,217690,3031,79,0.02,0.97,1,7,43.070873,-77.171707,170.300003,14.52
2687.99999999814,3376,2288,4037,5050,3250,60,4610,45,126,3330,-2,7350,7350,0,217692,3022,79,-0.22,0.5,1,7,43.070873,-77.171707,170.300003,14.52
2733.99999999814,3352,2307,4101,5050,3250,59,4655,45,102,3277,-26,7150,7150,0,217694,3040,79,-0.44,0.42,1,7,43.070873,-77.171707,170.300003,14.52
2779.99999999814,3332,2349,4170,5050,3250,60,4693,47,82,3286,-48,6983,6983,0,217696,3028,79,-0.55,0.92,1,7,43.070873,-77.171707,170.300003,14.52
2824.99999999814,3310,2375,4230,5050,3250,59,4720,45,60,3282,-46,6782,6782,0,217698,3035,79,-0.4,0.57,1,7,43.070873,-77.171707,170.300003,14.52
2869.99999999814,3291,2417,4289,5050,3250,58,4738,45,41,3281,-48,6600,6600,0,217699,3027,79,-0.52,0.95,1,7,43.070873,-77.171707,170.300003,14.52
2916.99999999814,3275,2464,4347,5050,3250,59,4749,47,25,3252,-38,6442,6442,0,217701,3031,79,-0.29,0.99,1,7,43.070873,-77.171707,170.300003,14.52
2961.99999999814,3262,2512,4403,5050,3250,60,4754,45,12,3209,-33,6309,6309,0,217703,3025,79,-0.35,1.09,1,7,43.070873,-77.171707,170.300003,14.52
3005.99999999814,3239,2529,4457,5050,3250,60,4750,44,-11,3172,-36,6057,6057,0,217705,3038,79,-0.61,0.38,1,7,43.070927,-77.171761,170.300003,17.47
3050.99999999814,3186,2527,4508,5050,3250,60,4722,45,-64,3016,-66,5449,5449,0,217707,3031,79,-0.89,-0.04,1,7,43.070927,-77.171761,170.300003,17.47
3096.99999999814,3106,2523,4552,5050,3250,59,4656,46,-144,2881,-130,4501,4501,0,217709,3034,79,-1.92,-0.09,1,7,43.070927,-77.171761,169.5,17.47
3142.99999999814,3019,2526,4588,5050,3250,57,4550,46,-231,2819,-178,3426,3426,0,217711,3039,79,-2.04,0.06,1,7,43.070927,-77.171761,169.5,17.47
3187.99999999814,2925,2502,4613,5050,3250,56,4404,45,-325,2739,-195,2223,2223,0,217713,3040,79,-2.15,-0.52,1,7,43.070927,-77.171761,169.5,17.47
3237.99999999814,2821,2482,4621,3948,3250,56,4404,45,-325,2654,-195,-3600,0,0,217715,3040,79,-2.3,-0.41,1,7,43.070927,-77.171761,169.5,17.47
3282.99999999814,2745,2477,4510,3943,3250,55,4404,45,-325,2636,-195,-19800,0,0,217717,3048,79,-1.67,-0.12,1,7,43.070927,-77.171761,169.5,17.47
3327.99999999814,2673,2431,4257,3900,3250,46,4404,45,-325,2521,-195,-36000,0,0,217718,3043,79,-1.51,-1,1,7,43.070927,-77.171761,169.5,17.47
3374.99999999814,2584,2351,3980,3819,3250,48,4404,45,-325,2372,-195,-25200,0,0,217720,3044,79,-1.76,-1.76,1,7,43.070927,-77.171761,169.5,17.47
3419.99999999814,2501,2267,3809,3726,3250,49,4404,45,-325,2326,-195,-18000,0,0,217721,3046,79,-1.61,-1.74,1,7,43.070927,-77.171761,169.5,17.47
3464.99999999814,2433,2181,3695,3572,3250,48,4404,45,-325,2311,-195,-16200,0,0,217723,3049,79,-2.62,-1.92,1,7,43.070927,-77.171761,169.5,17.47
3510.99999999814,2371,2101,3551,3412,3250,48,4404,45,-325,2326,-195,-19800,0,0,217724,3048,79,-1.2,-1.81,1,7,43.070927,-77.171761,169.5,17.47
3555.99999999814,2338,2039,3391,3282,3250,47,4404,45,-325,2358,-195,-19800,0,0,217726,3048,79,-0.65,-1.36,1,7,43.070927,-77.171761,169.5,17.47
3600.99999999814,2337,2016,3282,3258,3250,48,4404,45,-325,2365,-195,-7200,0,0,217728,3045,79,-0.02,-0.52,1,7,43.070927,-77.171761,169.5,17.47
3646.99999999814,2344,2009,3254,3250,3250,49,4404,45,-325,2360,-195,-1800,0,0,217729,3050,79,0.28,-0.14,1,7,43.070927,-77.171761,169.5,17.47
3690.99999999814,2354,1998,3242,3238,3250,49,4404,45,-325,2362,-195,-1800,0,0,217730,3049,79,0.2,-0.26,1,7,43.070927,-77.171761,169.5,17.47
3735.99999999814,2359,1981,3226,3220,3250,48,4404,45,-325,2350,-195,-3600,0,0,217732,3049,79,0.1,-0.37,1,7,43.070927,-77.171761,169.5,17.47
3782.99999999814,2354,1969,3209,3206,3250,48,4404,45,-325,2333,-195,-3600,0,0,217733,3044,79,-0.1,-0.26,1,7,43.070927,-77.171761,169.5,17.47
3827.99999999814,2347,1944,3191,3178,3250,48,4404,45,-325,2333,-195,-5400,0,0,217735,3045,79,-0.27,-0.58,1,7,43.070927,-77.171761,169.5,17.47
3870.99999999814,2349,1934,3170,3166,3250,48,4404,45,-325,2370,-195,-1800,0,0,217736,3044,79,0.04,-0.23,1,7,43.070927,-77.171761,169.5,17.47
3917.99999999814,2372,1934,3168,3166,3250,48,4404,45,-325,2477,-195,0,0,0,217738,3043,79,0.47,0,1,7,43.070927,-77.171761,169.5,17.47
3962.99999999814,2422,1920,3154,3150,3250,48,4404,45,-325,2600,-195,-3600,0,0,217739,3050,79,1.08,-0.29,1,7,43.070992,-77.171783,169.5,17.72
4007.99999999814,2493,1914,3143,3143,3250,49,4404,45,-325,2689,-195,0,0,0,217741,3047,79,1.59,-0.14,1,7,43.070992,-77.171783,169.5,17.72
4052.99999999814,2577,1889,3133,3112,3250,49,4404,45,-325,2751,-195,-5400,0,0,217742,3050,79,1.93,-0.54,1,7,43.070992,-77.171783,169.5,17.72
4098.99999999814,2688,1879,3106,3100,3250,48,4404,45,-325,2926,-195,-3600,0,0,217743,3048,79,1.8,-0.23,1,7,43.070992,-77.171783,169.199997,17.72
4143.99999999814,2803,1861,3092,3078,3250,49,4404,45,-325,3049,-195,-5400,0,0,217745,3047,79,2.92,-0.41,1,7,43.070992,-77.171783,169.199997,17.72
4189.99999999814,2907,1856,3082,5050,3250,49,4247,46,-343,3123,-363,880,1764,0,217746,3048,79,2.71,-0.1,1,7,43.070992,-77.171783,169.199997,17.72
4234.99999999814,3000,1841,3095,5050,3250,49,4137,44,-250,3154,231,2424,2647,0,217747,3043,79,1.63,-0.33,1,7,43.070992,-77.171783,169.199997,17.72
4279.99999999814,3074,1837,3123,5050,3250,55,4057,46,-176,3122,191,3364,3364,0,217749,3034,79,1.93,-0.09,1,7,43.070992,-77.171783,169.199997,17.72
4324.99999999814,3106,1817,3154,5050,3250,58,3993,45,-144,3082,140,3639,3639,0,217750,3039,79,0.82,-0.43,1,7,43.070992,-77.171783,169.199997,17.72
4371.99999999814,3118,1797,3186,5050,3250,57,3931,47,-132,3111,57,3688,3688,0,217752,3038,79,0.21,-0.43,1,7,43.070992,-77.171783,169.199997,17.72
4416.99999999814,3115,1783,3218,5050,3250,57,3871,45,-135,3107,17,3578,3578,0,217753,3035,79,-0.08,-0.3,1,7,43.070992,-77.171783,169.199997,17.72
4460.99999999814,3108,1787,3249,5050,3250,57,3809,44,-142,3120,-6,3421,3421,0,217754,3033,79,-0.18,0.09,1,7,43.070992,-77.171783,169.199997,17.72
4507.99999999814,3115,1818,3279,5050,3250,57,3746,47,-135,3159,-8,3415,3415,0,217756,3048,79,0.12,0.66,1,7,43.070992,-77.171783,169.199997,17.72
4552.99999999814,3145,1860,3310,5050,3250,56,3699,45,-105,3228,28,3677,3677,0,217757,3041,79,0.81,0.93,1,7,43.070992,-77.171783,169.199997,17.72
4597.99999999814,3177,1911,3343,5050,3250,57,3667,45,-73,3273,66,3981,3981,0,217759,3040,79,0.58,1.14,1,7,43.070992,-77.171783,169.199997,17.72
4643.99999999814,3213,1960,3379,5050,3250,56,3650,46,-37,3287,71,4347,4347,0,217760,3039,79,0.99,1.11,1,7,43.070992,-77.171783,169.199997,17.72
4689.99999999814,3239,1991,3418,5050,3250,56,3645,46,-11,3251,71,4620,4620,0,217762,3035,79,0.47,0.68,1,7,43.070992,-77.171783,169.199997,17.72
4734.99999999814,3246,2000,3464,5050,3250,57,3644,45,-4,3193,48,4694,4694,0,217763,3038,79,0.19,0.2,1,7,43.070992,-77.171783,169.199997,17.72
4780.99999999814,3226,1979,3504,5050,3250,57,3633,46,-24,3127,0,4464,4464,0,217765,3033,79,-0.35,-0.44,1,7,43.070992,-77.171783,169.199997,17.72
4824.99999999814,3190,1957,3542,5050,3250,58,3607,44,-60,3092,-54,4043,4043,0,217766,3033,79,-0.93,-0.51,1,7,43.070992,-77.171783,169.199997,17.72
4869.99999999814,3147,1930,3575,5050,3250,59,3561,45,-103,3073,-84,3519,3519,0,217768,3030,79,-1.1,-0.57,1,7,43.070992,-77.171783,169.199997,17.72
4916.99999999814,3112,1918,3604,5050,3250,58,3497,47,-138,3076,-85,3059,3059,0,217769,3035,79,-0.9,-0.28,1,7,43.070992,-77.171783,169.199997,17.72
4961.99999999814,3079,1911,3629,5050,3250,58,3421,45,-171,3029,-77,2605,2605,0,217771,3035,79,-0.56,-0.15,1,7,43.071045,-77.171753,169.199997,13.3
5006.99999999814,3059,1916,3651,5050,3250,58,3336,45,-191,3029,-66,2278,2278,0,217772,3028,79,-0.5,0.11,1,7,43.071045,-77.171753,169.199997,13.3
5053.99999999814,3027,1908,3669,5050,3250,60,3232,47,-223,2931,-48,1798,1798,0,217773,3029,79,-0.78,-0.18,1,7,43.071045,-77.171753,169.199997,13.3
5097.99999999814,2994,1892,3683,5050,3250,59,3120,44,-256,2907,-72,1298,1298,0,217775,3038,79,-0.8,-0.35,1,7,43.071045,-77.171753,168.699997,13.3
5142.99999999814,2949,1879,3692,5050,3250,59,2985,45,-301,2852,-80,637,637,0,217776,3036,79,-0.71,-0.29,1,7,43.071045,-77.171753,168.699997,13.3
5188.99999999814,2930,1896,3697,5050,3250,59,2838,46,-320,2932,-84,241,241,0,217778,3047,79,-0.46,0.35,1,7,43.071045,-77.171753,168.699997,13.3
5234.99999999814,2926,1929,3698,5050,3250,56,2693,45,-324,3010,-33,9,9,0,217779,3046,79,-0.1,0.76,1,7,43.071045,-77.171753,168.699997,13.3
5279.99999999814,2944,1951,3698,5050,3250,54,2553,46,-306,3022,4,21,21,0,217781,3047,79,0.45,0.48,1,7,43.071045,-77.171753,168.699997,13.3
5324.99999999814,2946,1971,3698,700,3250,53,2417,45,-304,2915,31,-134,-134,0,217782,3048,79,0.03,0.43,1,7,43.071045,-77.171753,168.699997,13.3
5369.99999999814,2953,1988,3697,700,3250,52,2284,45,-297,2889,6,-231,-231,0,217784,3045,79,0.17,0.4,1,7,43.071045,-77.171753,168.699997,13.3
5414.99999999814,2953,1992,3694,700,3250,52,2151,45,-297,2929,11,-404,-404,0,217785,3050,79,0,0.08,1,7,43.071045,-77.171753,168.699997,13.3
5458.99999999814,2943,1974,3689,700,3250,51,2016,44,-307,2963,-6,-688,-688,0,217787,3049,79,-0.25,-0.43,1,7,43.071045,-77.171753,168.699997,13.3
5504.99999999814,2927,1989,3682,700,3250,47,1868,46,-323,2940,-23,-1052,-1052,0,217788,3054,79,-0.39,0.32,1,7,43.071045,-77.171753,168.699997,13.3
5549.99999999814,2953,2039,3673,700,3250,47,1735,45,-297,3044,-11,-945,-945,0,217790,3044,79,0.44,1.12,1,7,43.071045,-77.171753,168.699997,13.3
5595.99999999814,2994,2077,3666,700,3250,47,1618,46,-256,3097,63,-655,-655,0,217792,3045,79,1.06,0.83,1,7,43.071045,-77.171753,168.699997,13.3
5640.99999999814,3028,2101,3661,700,3250,48,1519,45,-222,3099,88,-418,-418,0,217793,3046,79,0.88,0.53,1,7,43.071045,-77.171753,168.699997,13.3
5685.99999999814,3064,2136,3658,700,3250,48,1436,45,-186,3140,77,-138,-138,0,217795,3048,79,0.63,0.78,1,7,43.071045,-77.171753,168.699997,13.3
5730.99999999814,3115,2168,3658,5050,3250,48,1376,45,-135,3196,86,334,334,0,217797,3052,79,1.36,0.73,1,7,43.071045,-77.171753,168.699997,13.3
5775.99999999814,3139,2154,3662,5050,3250,48,1327,45,-111,3164,97,529,529,0,217798,3049,79,0.42,-0.3,1,7,43.071045,-77.171753,168.699997,13.3
5820.99999999814,3139,2130,3666,5050,3250,51,1278,45,-111,3097,40,465,465,0,217800,3043,79,0,-0.54,1,7,43.071045,-77.171753,168.699997,13.3
5865.99999999814,3121,2099,3670,5050,3250,57,1220,45,-129,3009,-8,196,196,0,217801,3031,79,-0.45,-0.69,1,7,43.071045,-77.171753,168.699997,13.3
5912.99999999814,3103,2080,3670,700,3250,59,1151,47,-147,3050,-40,-88,-88,0,217803,3051,79,-0.46,-0.4,1,7,43.071045,-77.171753,168.699997,13.3
5956.99999999814,3084,2058,3668,700,3250,54,1078,44,-166,3100,-38,-387,-387,0,217804,3052,79,-0.33,-0.51,1,7,43.071045,-77.171753,168.699997,13.3
6004.99999999814,3066,2061,3663,700,3250,46,990,48,-184,3078,-39,-695,-695,0,217806,3049,79,-0.46,0.06,1,7,43.071056,-77.171677,168.699997,14.4
6051.99999999814,3078,2102,3657,700,3250,47,910,47,-172,3157,-23,-670,-670,0,217808,3049,79,0.21,0.87,1,7,43.071056,-77.171677,168.699997,14.4
6094.99999999814,3122,2145,3653,700,3250,48,855,43,-128,3229,46,-268,-268,0,217809,3051,79,1.18,1.05,1,7,43.071056,-77.171677,168,14.4
6139.99999999814,3154,2162,3652,5050,3250,47,812,45,-96,3210,91,21,21,0,217811,3044,79,0.86,0.38,1,7,43.071056,-77.171677,168,14.4
