version:,4
time engine rpm secondary rpm dc motor pos dc motor target pos target rpm hlfb PI integral term PID dt Error engine raw rpm derivative of error signed motor velocity motor target velocity tire slipping (bool) secondary total rotations raw battery analog battery SOC primary slope secondary slope brake sensor (on/off) current state latitude longitude altitude gps speed (mph)
-1.86264514923096e-09,2943,2351,3957,5050,3250,53,2668,43,-307,2860,-65,160,160,0,178848,3083,82,-0.91,-0.02,1,7,43.070793,-77.171593,167.199997,18.57
38.9999999981374,2902,2334,3958,700,3250,53,2529,40,-348,2821,-95,-463,-463,0,178850,3088,82,-0.96,-0.43,1,7,43.070793,-77.171593,167.199997,18.57
77.9999999981374,2862,2310,3943,3776,3250,53,2529,40,-348,2783,-95,-5863,0,0,178851,3086,82,-0.93,-0.6,1,7,43.070793,-77.171593,167.199997,18.57
117.999999998137,2822,2283,3836,3747,3250,53,2529,40,-348,2747,-95,-18463,0,0,178853,3078,82,-0.92,-0.73,1,7,43.070793,-77.171593,167.699997,18.57
156.999999998137,2782,2251,3738,3698,3250,48,2529,40,-348,2702,-95,-11263,0,0,178854,3077,82,-0.9,-0.77,1,7,43.070793,-77.171593,167.699997,18.57
197.999999998137,2746,2214,3692,3633,3250,48,2529,40,-348,2680,-95,-7663,0,0,178856,3086,82,-1.61,-0.96,1,7,43.070793,-77.171593,167.699997,18.57
237.999999998137,2713,2169,3621,3550,3250,49,2529,40,-348,2655,-95,-11263,0,0,178857,3089,82,-0.73,-1.12,1,7,43.070793,-77.171593,167.699997,18.57
275.999999998137,2682,2127,3535,3467,3250,48,2529,40,-348,2627,-95,-13063,0,0,178858,3078,82,-0.68,-1.04,1,7,43.070793,-77.171593,167.699997,18.57
314.999999998137,2658,2087,3437,3382,3250,48,2529,40,-348,2628,-95,-13063,0,0,178860,3079,82,-0.53,-1.08,1,7,43.070793,-77.171593,167.699997,18.57
355.999999998137,2659,2057,3377,3316,3250,48,2529,40,-348,2705,-95,-9463,0,0,178861,3087,82,0.05,-0.74,1,7,43.070793,-77.171593,167.699997,18.57
395.999999998137,2696,2046,3306,3292,3250,49,2529,40,-348,2866,-95,-5863,0,0,178862,3085,82,0.88,-0.28,1,7,43.070793,-77.171593,167.699997,18.57
434.999999998137,2772,2037,3286,3280,3250,48,2529,40,-348,3036,-95,-3600,0,0,178864,3088,82,1.92,-0.22,1,7,43.070793,-77.171593,167.699997,18.57
473.999999998137,2863,2008,3271,3249,3250,50,2529,40,-348,3082,-95,-5400,0,0,178865,3086,82,2.34,-0.73,1,7,43.070793,-77.171593,167.699997,18.57
513.999999998137,2947,1975,3251,700,3250,49,2411,39,-303,3046,-125,-131,-131,0,178866,3083,82,2.13,-0.82,1,7,43.070793,-77.171593,167.699997,18.57
552.999999998137,3019,1949,3251,5050,3250,48,2319,40,-231,3069,202,440,525,0,178867,3084,82,1.84,-0.73,1,7,43.070793,-77.171593,167.699997,18.57
591.999999998137,3071,1926,3256,5050,3250,49,2250,39,-179,3125,171,996,996,0,178869,3077,82,1.35,-0.55,1,7,43.070793,-77.171593,167.699997,18.57
630.999999998137,3107,1917,3265,5050,3250,50,2195,39,-143,3213,123,1312,1312,0,178870,3073,82,0.64,-0.24,1,7,43.070793,-77.171593,167.699997,18.57
670.999999998137,3139,1932,3276,5050,3250,55,2152,39,-111,3243,89,1601,1601,0,178871,3067,82,0.86,0.39,1,7,43.070793,-77.171593,167.699997,18.57
709.999999998137,3171,1943,3290,5050,3250,56,2121,40,-79,3208,80,1906,1906,0,178872,3077,82,0.86,0.28,1,7,43.070793,-77.171593,167.699997,18.57
748.999999998137,3190,1937,3303,5050,3250,57,2098,39,-60,3164,74,2081,2081,0,178874,3070,82,0.5,-0.15,1,7,43.070793,-77.171593,167.699997,18.57
787.999999998137,3190,1916,3319,5050,3250,58,2075,39,-60,3123,35,2051,2051,0,178875,3075,82,0,-0.52,1,7,43.070793,-77.171593,167.699997,18.57
827.999999998137,3172,1897,3335,5050,3250,58,2044,40,-78,3126,-10,1817,1817,0,178876,3076,82,-0.47,-0.48,1,7,43.070793,-77.171593,167.699997,18.57
866.999999998137,3150,1882,3348,5050,3250,59,2005,39,-100,3133,-48,1529,1529,0,178877,3077,82,-0.57,-0.38,1,7,43.070793,-77.171593,167.699997,18.57
905.999999998137,3136,1876,3359,5050,3250,58,1961,39,-114,3136,-51,1321,1321,0,178878,3066,82,-0.37,-0.15,1,7,43.070793,-77.171593,167.699997,18.57
945.999999998137,3125,1875,3369,5050,3250,57,1911,40,-125,3111,-32,1137,1137,0,178880,3073,82,-0.29,-0.03,1,7,43.070793,-77.171593,167.699997,18.57
984.999999998137,3116,1873,3377,5050,3250,58,1859,39,-134,3076,-28,972,972,0,178881,3070,82,-0.23,-0.05,1,7,43.070839,-77.171638,167.699997,13.11
1023.99999999814,3101,1867,3383,5050,3250,58,1801,39,-149,3050,-25,736,736,0,178882,3077,82,-0.38,-0.15,1,7,43.070839,-77.171638,167.699997,13.11
1063.99999999814,3086,1867,3388,5050,3250,58,1738,39,-164,3058,-41,492,492,0,178883,3077,82,-0.38,0,1,7,43.070839,-77.171638,167.699997,13.11
1102.99999999814,3073,1869,3392,5050,3250,57,1668,40,-177,3073,-35,261,261,0,178885,3079,82,-0.33,0.06,1,7,43.070839,-77.171638,167.699997,13.11
1141.99999999814,3069,1876,3393,5050,3250,56,1598,39,-181,3091,-28,127,127,0,178886,3070,82,-0.1,0.18,1,7,43.070839,-77.171638,168.100006,13.11
1181.99999999814,3072,1885,3394,5050,3250,56,1527,40,-178,3092,-5,67,67,0,178887,3079,82,0.08,0.21,1,7,43.070839,-77.171638,168.100006,13.11
1282.99999999814,3081,1899,3395,700,3250,56,1358,100,-169,3094,5,-56,-56,0,178890,3077,82,0.09,0.14,1,7,43.070839,-77.171638,168.100006,13.11
1323.99999999814,3088,1900,3395,700,3250,55,1292,41,-162,3090,19,-66,-66,0,178892,3075,82,0.18,0.02,1,7,43.070839,-77.171638,168.100006,13.11
1361.99999999814,3088,1901,3394,700,3250,54,1229,39,-162,3076,15,-148,-148,0,178893,3080,82,0,0.03,1,7,43.070839,-77.171638,168.100006,13.11
1402.99999999814,3089,1904,3393,700,3250,54,1165,40,-161,3095,0,-221,-221,0,178894,3077,82,0.02,0.07,1,7,43.070839,-77.171638,168.100006,13.11
1441.99999999814,3095,1914,3391,700,3250,53,1103,40,-155,3120,2,-237,-237,0,178895,3087,82,0.16,0.26,1,7,43.070839,-77.171638,168.100006,13.11
1479.99999999814,3102,1920,3389,700,3250,51,1047,38,-148,3132,18,-233,-233,0,178897,3082,82,0.18,0.16,1,7,43.070839,-77.171638,168.100006,13.11
1520.99999999814,3112,1926,3387,700,3250,49,991,41,-138,3139,19,-199,-199,0,178898,3079,82,0.26,0.15,1,7,43.070839,-77.171638,168.100006,13.11
1558.99999999814,3121,1933,3386,700,3250,46,942,38,-129,3122,26,-166,-166,0,178899,3089,82,0.23,0.18,1,7,43.070839,-77.171638,168.100006,13.11
1598.99999999814,3128,1936,3385,700,3250,46,894,40,-122,3128,20,-152,-152,0,178901,3082,82,0.18,0.08,1,7,43.070839,-77.171638,168.100006,13.11
1639.99999999814,3123,1923,3383,700,3250,49,844,40,-127,3094,10,-271,-271,0,178902,3086,82,-0.13,-0.33,1,7,43.070839,-77.171638,168.100006,13.11
1677.99999999814,3092,1894,3380,700,3250,50,783,39,-158,2977,-28,-685,-685,0,178903,3080,82,-0.77,-0.7,1,7,43.070839,-77.171638,168.100006,13.11
1716.99999999814,3023,1853,3372,700,3250,51,695,39,-227,2794,-105,-1543,-1543,0,178904,3088,82,-1.61,-1.05,1,7,43.070839,-77.171638,168.100006,13.11
1756.99999999814,2934,1808,3357,700,3250,49,572,39,-316,2680,-189,-2662,-2662,0,178905,3086,82,-3.98,-1.14,1,7,43.070839,-77.171638,168.100006,13.11
1795.99999999814,2830,1762,3326,2928,3250,46,572,39,-316,2606,-189,-8062,0,0,178906,3078,82,-2.26,-1.16,1,7,43.070839,-77.171638,168.100006,13.11
1835.99999999814,2718,1723,3199,2860,3250,48,572,39,-316,2535,-189,-22462,0,0,178907,3087,82,-2.37,-0.97,1,7,43.070839,-77.171638,168.100006,13.11
1876.99999999814,2622,1692,2985,2804,3250,48,572,39,-316,2495,-189,-26062,0,0,178908,3089,82,-3.99,-0.76,1,7,43.070839,-77.171638,168.100006,13.11
1915.99999999814,2554,1667,2834,2758,3250,47,572,39,-316,2455,-189,-15262,0,0,178909,3078,82,-1.39,-0.67,1,7,43.070839,-77.171638,168.100006,13.11
1954.99999999814,2504,1633,2758,2692,3250,49,572,39,-316,2429,-189,-13462,0,0,178910,3081,82,-1.01,-0.87,1,7,43.070839,-77.171638,168.100006,13.11
1995.99999999814,2466,1603,2682,2632,3250,48,572,39,-316,2417,-189,-9862,0,0,178912,3088,82,-1.53,-0.77,1,7,43.070889,-77.171684,168.100006,15.29
2034.99999999814,2447,1572,2607,2567,3250,49,572,39,-316,2442,-189,-11662,0,0,178913,3086,82,-0.39,-0.79,1,7,43.070889,-77.171684,168.100006,15.29
2074.99999999814,2463,1542,2544,2506,3250,49,572,39,-316,2576,-189,-11662,0,0,178914,3090,82,0.34,-0.75,1,7,43.070889,-77.171684,168.100006,15.29
2115.99999999814,2512,1526,2495,2475,3250,49,572,39,-316,2698,-189,-8062,0,0,178915,3085,82,2.2,-0.36,1,7,43.070889,-77.171684,169.199997,15.29
2153.99999999814,2573,1523,2471,2469,3250,48,572,39,-316,2732,-189,-2662,0,0,178916,3088,82,1.39,-0.09,1,7,43.070889,-77.171684,169.199997,15.29
2193.99999999814,2649,1516,2462,2455,3250,48,572,39,-316,2800,-189,-3600,0,0,178917,3087,82,1.77,-0.18,1,7,43.070889,-77.171684,169.199997,15.29
2233.99999999814,2746,1520,2457,2463,3250,48,572,39,-316,2927,-189,880,0,0,178918,3077,82,2.37,0.09,1,7,43.070889,-77.171684,169.199997,15.29
2273.99999999814,2843,1542,2469,2506,3250,48,572,39,-316,3061,-189,2420,0,0,178919,3080,82,2.47,0.59,1,7,43.070889,-77.171684,169.199997,15.29
2312.99999999814,2938,1563,2484,700,3250,49,448,40,-312,3171,-335,-1800,-2983,0,178920,3081,82,2.51,0.51,1,7,43.070889,-77.171684,169.199997,15.29
2352.99999999814,3040,1583,2464,700,3250,54,364,40,-210,3242,242,-1926,-1926,0,178921,3087,82,2.76,0.54,1,7,43.070889,-77.171684,169.199997,15.29
2392.99999999814,3133,1602,2451,700,3250,54,319,39,-117,3266,256,-922,-922,0,178922,3082,82,2.53,0.45,1,7,43.070889,-77.171684,169.199997,15.29
2431.99999999814,3200,1617,2446,700,3250,48,300,39,-50,3264,220,-181,-181,0,178923,3080,82,1.21,0.41,1,7,43.070889,-77.171684,169.199997,15.29
2471.99999999814,3247,1623,2446,5050,3250,47,299,40,-3,3294,155,354,354,0,178924,3085,82,1.29,0.15,1,7,43.070889,-77.171684,169.199997,15.29
2511.99999999814,3280,1631,2450,5050,3250,48,311,40,30,3337,110,746,746,0,178925,3081,82,0.92,0.2,1,7,43.070889,-77.171684,169.199997,15.29
2550.99999999814,3307,1642,2457,5050,3250,48,333,39,57,3374,79,1083,1083,0,178926,3076,82,0.76,0.27,1,7,43.070889,-77.171684,169.199997,15.29
2590.99999999814,3336,1660,2466,5050,3250,53,367,40,86,3412,70,1459,1459,0,178927,3076,82,0.55,0.45,1,7,43.070889,-77.171684,169.199997,15.29
2630.99999999814,3371,1677,2478,5050,3250,55,414,39,121,3438,76,1920,1920,0,178929,3080,82,1,0.43,1,7,43.070889,-77.171684,169.199997,15.29
2669.99999999814,3403,1699,2495,5050,3250,54,475,40,153,3454,85,2365,2365,0,178930,3075,82,0.92,0.57,1,7,43.070889,-77.171684,169.199997,15.29
2709.99999999814,3427,1718,2515,5050,3250,55,545,40,177,3458,75,2730,2730,0,178931,3086,82,0.69,0.49,1,7,43.070889,-77.171684,169.199997,15.29
2749.99999999814,3441,1732,2534,5050,3250,55,619,39,191,3445,56,2986,2986,0,178932,3076,82,0.27,0.33,1,7,43.070889,-77.171684,169.199997,15.29
2788.99999999814,3444,1747,2558,5050,3250,54,696,40,194,3428,27,3120,3120,0,178933,3086,82,0.09,0.39,1,7,43.070889,-77.171684,169.199997,15.29
2828.99999999814,3443,1767,2582,5050,3250,54,773,40,193,3432,5,3209,3209,0,178934,3085,82,-0.03,0.48,1,7,43.070889,-77.171684,169.199997,15.29
2869.99999999814,3441,1779,2611,5050,3250,54,851,41,191,3442,-2,3288,3288,0,178936,3076,82,-0.04,0.29,1,7,43.070889,-77.171684,169.199997,15.29
2908.99999999814,3435,1788,2633,5050,3250,53,921,38,185,3431,-10,3310,3310,0,178937,3081,82,-0.17,0.24,1,7,43.070889,-77.171684,169.199997,15.29
2947.99999999814,3430,1802,2659,5050,3250,53,993,40,180,3421,-12,3346,3346,0,178938,3085,82,-0.14,0.38,1,7,43.070889,-77.171684,169.199997,15.29
2987.99999999814,3430,1811,2686,5050,3250,53,1065,40,180,3425,-10,3440,3440,0,178939,3081,82,0,0.22,1,7,43.070938,-77.171738,169.199997,14.04
3028.99999999814,3425,1807,2713,5050,3250,54,1136,41,175,3406,-2,3475,3475,0,178940,3076,82,-0.09,-0.1,1,7,43.070938,-77.171738,169.199997,14.04
3067.99999999814,3418,1811,2740,5050,3250,55,1199,38,168,3409,-15,3477,3477,0,178942,3078,82,-0.2,0.11,1,7,43.070938,-77.171738,169.199997,14.04
3107.99999999814,3417,1824,2767,5050,3250,55,1265,40,167,3427,-12,3552,3552,0,178943,3083,82,-0.03,0.32,1,7,43.070938,-77.171738,168,14.04
3148.99999999814,3420,1835,2795,5050,3250,54,1334,41,170,3433,0,3676,3676,0,178944,3080,82,0.09,0.27,1,7,43.070938,-77.171738,168,14.04
3188.99999999814,3422,1846,2825,5050,3250,54,1402,40,172,3435,7,3787,3787,0,178945,3077,82,0.04,0.28,1,7,43.070938,-77.171738,168,14.04
3226.99999999814,3427,1870,2855,5050,3250,54,1471,39,177,3434,5,3934,3934,0,178947,3080,82,0.14,0.61,1,7,43.070938,-77.171738,168,14.04
3267.99999999814,3434,1890,2886,5050,3250,54,1546,41,184,3444,14,4111,4111,0,178948,3079,82,0.2,0.47,1,7,43.070938,-77.171738,168,14.04
3307.99999999814,3437,1909,2918,5050,3250,54,1620,40,187,3440,15,4242,4242,0,178949,3086,82,0.06,0.5,1,7,43.070938,-77.171738,168,14.04
3347.99999999814,3439,1933,2952,5050,3250,55,1695,40,189,3444,5,4360,4360,0,178951,3070,82,0.06,0.58,1,7,43.070938,-77.171738,168,14.04
3390.99999999814,3443,1961,2990,5050,3250,55,1777,43,193,3453,6,4489,4489,0,178952,3068,82,0.12,0.63,1,7,43.070938,-77.171738,168,14.04
3430.99999999814,3444,1982,3026,5050,3250,54,1852,39,194,3441,10,4575,4575,0,178953,3070,82,0.02,0.56,1,7,43.070938,-77.171738,168,14.04
3469.99999999814,3427,1986,3061,5050,3250,54,1922,40,177,3358,-10,4457,4457,0,178955,3069,82,-0.48,0.1,1,7,43.070938,-77.171738,168,14.04
3509.99999999814,3393,1981,3095,5050,3250,55,1979,40,143,3269,-52,4139,4139,0,178956,3074,82,-0.93,-0.12,1,7,43.070938,-77.171738,168,14.04
3547.99999999814,3342,1968,3121,5050,3250,55,2013,38,92,3192,-102,3614,3614,0,178957,3079,82,-1.36,-0.33,1,7,43.070938,-77.171738,168,14.04
3590.99999999814,3274,1946,3151,5050,3250,56,2023,43,24,3110,-127,2887,2887,0,178958,3077,82,-1.76,-0.56,1,7,43.070938,-77.171738,168,14.04
3630.99999999814,3192,1922,3171,5050,3250,55,2000,40,-58,3033,-177,1975,1975,0,178960,3079,82,-2.07,-0.55,1,7,43.070938,-77.171738,168,14.04
3669.99999999814,3116,1918,3183,5050,3250,55,1948,39,-134,2979,-205,1088,1088,0,178961,3083,82,-1.89,-0.1,1,7,43.070938,-77.171738,168,14.04
3707.99999999814,3049,1915,3188,5050,3250,53,1872,38,-201,2934,-194,267,267,0,178962,3084,82,-1.64,-0.09,1,7,43.070938,-77.171738,168,14.04
3748.99999999814,2987,1905,3188,700,3250,52,1765,41,-263,2883,-163,-540,-540,0,178963,3082,82,-1.49,-0.25,1,7,43.070938,-77.171738,168,14.04
3787.99999999814,2931,1893,3182,700,3250,52,1641,39,-319,2826,-153,-1304,-1304,0,178965,3076,82,-1.32,-0.3,1,7,43.070938,-77.171738,168,14.04
3824.99999999814,2881,1892,3154,3116,3250,52,1641,39,-319,2783,-153,-8504,0,0,178966,3081,82,-1.16,-0.03,1,7,43.070938,-77.171738,168,14.04
3865.99999999814,2838,1880,3107,3101,3250,47,1641,39,-319,2765,-153,-4904,0,0,178967,3084,82,-1.98,-0.3,1,7,43.070938,-77.171738,168,14.04
3904.99999999814,2801,1865,3089,3083,3250,48,1641,39,-319,2748,-153,-3600,0,0,178968,3082,82,-0.85,-0.41,1,7,43.070938,-77.171738,168,14.04
3942.99999999814,2769,1850,3074,3064,3250,49,1641,39,-319,2726,-153,-5400,0,0,178969,3086,82,-0.73,-0.4,1,7,43.070938,-77.171738,168,14.04
3981.99999999814,2746,1843,3058,3055,3250,49,1641,39,-319,2712,-153,-1800,0,0,178971,3086,82,-0.52,-0.17,1,7,43.070995,-77.171761,168,15.66
4021.99999999814,2730,1816,3047,3017,3250,49,1641,39,-319,2699,-153,-5400,0,0,178972,3077,82,-0.72,-0.7,1,7,43.070995,-77.171761,168,15.66
4060.99999999814,2713,1794,3007,2981,3250,48,1641,39,-319,2684,-153,-7200,0,0,178973,3085,82,-0.38,-0.57,1,7,43.070995,-77.171761,168,15.66
4098.99999999814,2697,1770,2963,2942,3250,48,1641,39,-319,2668,-153,-7200,0,0,178974,3079,82,-0.36,-0.62,1,7,43.070995,-77.171761,168,15.66
4138.99999999814,2701,1766,2936,2935,3250,48,1641,39,-319,2744,-153,-1800,0,0,178975,3083,82,0.09,-0.1,1,7,43.070995,-77.171761,167.300003,15.66
4177.99999999814,2735,1766,2936,2935,3250,48,1641,39,-319,2880,-153,0,0,0,178976,3082,82,0.82,0,1,7,43.070995,-77.171761,167.300003,15.66
4216.99999999814,2796,1784,2937,2965,3250,49,1641,39,-319,3008,-153,660,0,0,178978,3087,82,1.53,0.44,1,7,43.070995,-77.171761,167.300003,15.66
4256.99999999814,2881,1807,2950,3002,3250,50,1641,39,-319,3105,-153,2420,0,0,178979,3084,82,2.2,0.64,1,7,43.070995,-77.171761,167.300003,15.66
4295.99999999814,2979,1843,2965,700,3250,52,1536,39,-271,3158,-174,-1074,-1074,0,178980,3078,82,2.58,0.92,1,7,43.070995,-77.171761,167.300003,15.66
4332.99999999814,3066,1857,2961,700,3250,53,1467,38,-184,3181,252,-180,-180,0,178981,3085,82,2.31,0.35,1,7,43.070995,-77.171761,167.300003,15.66
4373.99999999814,3120,1866,2960,5050,3250,53,1414,41,-130,3151,192,364,364,0,178983,3087,82,1.42,0.22,1,7,43.070995,-77.171761,167.300003,15.66
4412.99999999814,3156,1877,2964,5050,3250,51,1378,39,-94,3188,128,726,726,0,178984,3082,82,0.96,0.28,1,7,43.070995,-77.171761,167.300003,15.66
4450.99999999814,3176,1869,2970,5050,3250,48,1351,37,-74,3206,86,919,919,0,178985,3081,82,0.53,-0.22,1,7,43.070995,-77.171761,167.300003,15.66
4490.99999999814,3189,1863,2978,5050,3250,48,1326,41,-61,3220,43,1034,1034,0,178986,3071,82,0.35,-0.15,1,7,43.070995,-77.171761,167.300003,15.66
4529.99999999814,3207,1874,2986,5050,3250,54,1310,39,-43,3271,33,1219,1219,0,178987,3073,82,0.49,0.28,1,7,43.070995,-77.171761,167.300003,15.66
4567.99999999814,3237,1882,2996,5050,3250,56,1306,38,-13,3304,57,1551,1551,0,178989,3080,82,0.83,0.22,1,7,43.070995,-77.171761,167.300003,15.66
4607.99999999814,3259,1866,3008,5050,3250,54,1309,40,9,3298,67,1801,1801,0,178990,3066,82,0.6,-0.39,1,7,43.070995,-77.171761,167.300003,15.66
4646.99999999814,3269,1869,3023,5050,3250,56,1316,39,19,3253,51,1922,1922,0,178991,3069,82,0.18,0.07,1,7,43.070995,-77.171761,167.300003,15.66
4684.99999999814,3285,1867,3037,5050,3250,56,1329,38,35,3299,28,2116,2116,0,178992,3065,82,0.44,-0.06,1,7,43.070995,-77.171761,167.300003,15.66
4724.99999999814,3294,1871,3056,5050,3250,56,1346,40,44,3318,35,2235,2235,0,178994,3079,82,0.25,0.09,1,7,43.070995,-77.171761,167.300003,15.66
4763.99999999814,3303,1883,3071,5050,3250,56,1366,39,53,3351,23,2358,2358,0,178995,3076,82,0.25,0.31,1,7,43.070995,-77.171761,167.300003,15.66
4801.99999999814,3319,1914,3090,5050,3250,56,1392,38,69,3377,28,2564,2564,0,178996,3076,82,0.45,0.81,1,7,43.070995,-77.171761,167.300003,15.66
4840.99999999814,3345,1939,3111,5050,3250,56,1429,39,95,3382,48,2890,2890,0,178997,3067,82,0.73,0.66,1,7,43.070995,-77.171761,167.300003,15.66
4880.99999999814,3359,1953,3134,5050,3250,57,1472,40,109,3369,55,3091,3091,0,178999,3066,82,0.26,0.36,1,7,43.070995,-77.171761,167.300003,15.66
4918.99999999814,3360,1956,3156,5050,3250,57,1513,38,110,3322,31,3151,3151,0,179000,3074,82,0.03,0.08,1,7,43.070995,-77.171761,167.300003,15.66
4957.99999999814,3359,1966,3180,5050,3250,57,1555,39,109,3349,0,3195,3195,0,179001,3071,82,-0.03,0.24,1,7,43.070995,-77.171761,167.300003,15.66
4998.99999999814,3359,1969,3205,5050,3250,57,1598,40,109,3374,-2,3251,3251,0,179002,3066,82,0,0.08,1,7,43.071049,-77.171738,167.300003,14.7
5037.99999999814,3350,1972,3231,5050,3250,56,1637,39,100,3339,-5,3205,3205,0,179004,3070,82,-0.25,0.07,1,7,43.071049,-77.171738,167.300003,14.7
5076.99999999814,3339,1970,3256,5050,3250,56,1672,40,89,3313,-25,3132,3132,0,179005,3078,82,-0.2,-0.05,1,7,43.071049,-77.171738,167.300003,14.7
5115.99999999814,3331,1978,3280,5050,3250,57,1703,39,81,3281,-25,3085,3085,0,179006,3072,82,-0.22,0.21,1,7,43.071049,-77.171738,166.699997,14.7
5154.99999999814,3321,1971,3301,5050,3250,57,1730,39,71,3298,-20,3014,3014,0,179008,3066,82,-0.27,-0.18,1,7,43.071049,-77.171738,166.699997,14.7
5193.99999999814,3298,1967,3324,5050,3250,58,1748,39,48,3261,-35,2789,2789,0,179009,3078,82,-0.63,-0.1,1,7,43.071049,-77.171738,166.699997,14.7
5232.99999999814,3281,1960,3345,5050,3250,58,1760,39,31,3254,-53,2622,2622,0,179010,3065,82,-0.46,-0.18,1,7,43.071049,-77.171738,166.699997,14.7
5271.99999999814,3264,1968,3365,5050,3250,58,1765,39,14,3228,-43,2444,2444,0,179011,3077,82,-0.46,0.21,1,7,43.071049,-77.171738,166.699997,14.7
5311.99999999814,3260,1987,3384,5050,3250,58,1768,39,10,3260,-33,2405,2405,0,179013,3071,82,-0.11,0.48,1,7,43.071049,-77.171738,166.699997,14.7
5351.99999999814,3272,2034,3403,5050,3250,57,1777,41,22,3361,0,2547,2547,0,179014,3074,82,0.22,1.15,1,7,43.071049,-77.171738,166.699997,14.7
